time_s,MLII,V1
0.0,0.35,0.105
0.002777777777777778,0.35,0.105
0.005555555555555556,0.35,0.105
0.008333333333333333,0.35,0.105
0.011111111111111112,0.35,0.105
0.013888888888888888,0.35,0.105
0.016666666666666666,0.35,0.105
0.019444444444444445,0.35,0.105
0.022222222222222223,0.35,0.105
0.025,0.02,0.115
0.027777777777777776,-0.21,0.09
0.030555555555555555,-0.33,0.075
0.03333333333333333,-0.37,0.095
0.03611111111111111,-0.335,0.115
0.03888888888888889,-0.285,0.09
0.041666666666666664,-0.23,0.085
0.044444444444444446,-0.215,0.09
0.04722222222222222,-0.2,0.085
0.05,-0.19,0.07
0.05277777777777778,-0.2,0.075
0.05555555555555555,-0.2,0.09
0.058333333333333334,-0.21,0.095
0.06111111111111111,-0.23,0.07
0.06388888888888888,-0.25,0.03
0.06666666666666667,-0.255,0.04
0.06944444444444445,-0.245,0.07
0.07222222222222222,-0.24,0.065
0.075,-0.215,0.04
0.07777777777777778,-0.235,0.04
0.08055555555555556,-0.23,0.045
0.08333333333333333,-0.23,0.04
0.08611111111111111,-0.205,0.015
0.08888888888888889,-0.18,0.04
0.09166666666666666,-0.165,0.05
0.09444444444444444,-0.195,0.06
0.09722222222222222,-0.21,0.04
0.1,-0.215,0.03
0.10277777777777777,-0.195,0.06
0.10555555555555556,-0.17,0.085
0.10833333333333334,-0.155,0.07
0.1111111111111111,-0.175,0.045
0.11388888888888889,-0.195,0.05
0.11666666666666667,-0.21,0.065
0.11944444444444445,-0.2,0.09
0.12222222222222222,-0.2,0.08
0.125,-0.195,0.075
0.12777777777777777,-0.185,0.075
0.13055555555555556,-0.185,0.05
0.13333333333333333,-0.18,0.045
0.1361111111111111,-0.175,0.065
0.1388888888888889,-0.175,0.07
0.14166666666666666,-0.165,0.085
0.14444444444444443,-0.14,0.075
0.14722222222222223,-0.12,0.045
0.15,-0.115,0.06
0.1527777777777778,-0.13,0.075
0.15555555555555556,-0.155,0.06
0.15833333333333333,-0.19,0.035
0.16111111111111112,-0.19,0.04
0.1638888888888889,-0.185,0.055
0.16666666666666666,-0.18,0.07
0.16944444444444445,-0.16,0.06
0.17222222222222222,-0.14,0.07
0.175,-0.13,0.07
0.17777777777777778,-0.11,0.07
0.18055555555555555,-0.12,0.055
0.18333333333333332,-0.13,0.04
0.18611111111111112,-0.13,0.05
0.18888888888888888,-0.125,0.08
0.19166666666666668,-0.095,0.085
0.19444444444444445,-0.095,0.06
0.19722222222222222,-0.09,0.05
0.2,-0.08,0.065
0.20277777777777778,-0.075,0.08
0.20555555555555555,-0.07,0.07
0.20833333333333334,-0.075,0.05
0.2111111111111111,-0.065,0.065
0.21388888888888888,-0.055,0.06
0.21666666666666667,-0.06,0.075
0.21944444444444444,-0.055,0.055
0.2222222222222222,-0.04,0.06
0.225,-0.03,0.08
0.22777777777777777,-0.02,0.065
0.23055555555555557,-0.015,0.05
0.23333333333333334,-0.015,0.04
0.2361111111111111,-0.01,0.065
0.2388888888888889,0.015,0.095
0.24166666666666667,0.035,0.075
0.24444444444444444,0.025,0.05
0.24722222222222223,0.015,0.065
0.25,0.015,0.07
0.25277777777777777,0.025,0.06
0.25555555555555554,0.025,0.055
0.25833333333333336,0.04,0.05
0.2611111111111111,0.04,0.07
0.2638888888888889,0.03,0.065
0.26666666666666666,0.015,0.065
0.26944444444444443,0.02,0.07
0.2722222222222222,0.035,0.085
0.275,0.045,0.09
0.2777777777777778,0.05,0.06
0.28055555555555556,0.025,0.035
0.2833333333333333,0.02,0.055
0.2861111111111111,0.02,0.085
0.28888888888888886,0.01,0.095
0.2916666666666667,0.01,0.08
0.29444444444444445,0.0,0.08
0.2972222222222222,-0.005,0.075
0.3,-0.025,0.075
0.30277777777777776,-0.02,0.07
0.3055555555555556,-0.03,0.07
0.30833333333333335,-0.03,0.085
0.3111111111111111,-0.035,0.075
0.3138888888888889,-0.045,0.06
0.31666666666666665,-0.055,0.055
0.3194444444444444,-0.06,0.085
0.32222222222222224,-0.065,0.105
0.325,-0.075,0.085
0.3277777777777778,-0.08,0.06
0.33055555555555555,-0.075,0.045
0.3333333333333333,-0.075,0.06
0.33611111111111114,-0.075,0.085
0.3388888888888889,-0.07,0.09
0.3416666666666667,-0.075,0.075
0.34444444444444444,-0.08,0.085
0.3472222222222222,-0.09,0.09
0.35,-0.1,0.095
0.3527777777777778,-0.095,0.08
0.35555555555555557,-0.095,0.075
0.35833333333333334,-0.085,0.08
0.3611111111111111,-0.095,0.095
0.3638888888888889,-0.1,0.08
0.36666666666666664,-0.1,0.085
0.36944444444444446,-0.115,0.085
0.37222222222222223,-0.115,0.095
0.375,-0.13,0.09
0.37777777777777777,-0.14,0.06
0.38055555555555554,-0.15,0.05
0.38333333333333336,-0.16,0.085
0.3861111111111111,-0.145,0.1
0.3888888888888889,-0.155,0.095
0.39166666666666666,-0.16,0.08
0.39444444444444443,-0.17,0.09
0.3972222222222222,-0.185,0.085
0.4,-0.175,0.085
0.4027777777777778,-0.17,0.08
0.40555555555555556,-0.165,0.075
0.4083333333333333,-0.17,0.09
0.4111111111111111,-0.17,0.105
0.41388888888888886,-0.165,0.07
0.4166666666666667,-0.18,0.075
0.41944444444444445,-0.18,0.08
0.4222222222222222,-0.2,0.105
0.425,-0.2,0.095
0.42777777777777776,-0.215,0.075
0.4305555555555556,-0.205,0.045
0.43333333333333335,-0.21,0.065
0.4361111111111111,-0.205,0.1
0.4388888888888889,-0.21,0.09
0.44166666666666665,-0.22,0.075
0.4444444444444444,-0.225,0.08
0.44722222222222224,-0.225,0.08
0.45,-0.24,0.075
0.4527777777777778,-0.225,0.06
0.45555555555555555,-0.21,0.055
0.4583333333333333,-0.205,0.085
0.46111111111111114,-0.195,0.095
0.4638888888888889,-0.19,0.07
0.4666666666666667,-0.2,0.065
0.46944444444444444,-0.19,0.09
0.4722222222222222,-0.19,0.105
0.475,-0.185,0.115
0.4777777777777778,-0.17,0.075
0.48055555555555557,-0.17,0.07
0.48333333333333334,-0.175,0.09
0.4861111111111111,-0.165,0.11
0.4888888888888889,-0.165,0.105
0.49166666666666664,-0.185,0.09
0.49444444444444446,-0.185,0.085
0.49722222222222223,-0.205,0.09
0.5,-0.205,0.085
0.5027777777777778,-0.21,0.08
0.5055555555555555,-0.195,0.06
0.5083333333333333,-0.195,0.09
0.5111111111111111,-0.19,0.09
0.5138888888888888,-0.195,0.06
0.5166666666666667,-0.195,0.065
0.5194444444444445,-0.195,0.065
0.5222222222222223,-0.185,0.09
0.525,-0.175,0.085
0.5277777777777778,-0.175,0.045
0.5305555555555556,-0.2,0.025
0.5333333333333333,-0.225,0.04
0.5361111111111111,-0.25,0.07
0.5388888888888889,-0.24,0.055
0.5416666666666666,-0.24,0.03
0.5444444444444444,-0.24,0.02
0.5472222222222223,-0.25,0.02
0.55,-0.26,0.03
0.5527777777777778,-0.27,0.015
0.5555555555555556,-0.28,-0.015
0.5583333333333333,-0.305,0.0
0.5611111111111111,-0.335,0.015
0.5638888888888889,-0.35,0.0
0.5666666666666667,-0.34,-0.025
0.5694444444444444,-0.285,-0.03
0.5722222222222222,-0.205,-0.02
0.575,-0.135,-0.02
0.5777777777777777,-0.095,-0.055
0.5805555555555556,-0.045,-0.08
0.5833333333333334,0.01,-0.07
0.5861111111111111,0.075,-0.04
0.5888888888888889,0.14,-0.055
0.5916666666666667,0.175,-0.065
0.5944444444444444,0.135,-0.095
0.5972222222222222,0.045,-0.08
0.6,-0.155,-0.065
0.6027777777777777,-0.425,-0.07
0.6055555555555555,-0.71,-0.085
0.6083333333333333,-0.915,-0.065
0.6111111111111112,-1.09,-0.05
0.6138888888888889,-1.255,-0.06
0.6166666666666667,-1.395,-0.08
0.6194444444444445,-1.465,-0.08
0.6222222222222222,-1.505,-0.03
0.625,-1.49,-0.02
0.6277777777777778,-1.45,-0.025
0.6305555555555555,-1.39,-0.05
0.6333333333333333,-1.34,-0.005
0.6361111111111111,-1.27,0.03
0.6388888888888888,-1.155,0.045
0.6416666666666667,-1.025,0.045
0.6444444444444445,-0.95,0.025
0.6472222222222223,-0.93,0.03
0.65,-0.93,0.05
0.6527777777777778,-0.91,0.04
0.6555555555555556,-0.885,0.03
0.6583333333333333,-0.865,0.015
0.6611111111111111,-0.84,0.04
0.6638888888888889,-0.8,0.04
0.6666666666666666,-0.755,0.025
0.6694444444444444,-0.715,0.02
0.6722222222222223,-0.66,0.035
0.675,-0.63,0.055
0.6777777777777778,-0.58,0.04
0.6805555555555556,-0.54,0.01
0.6833333333333333,-0.51,0.015
0.6861111111111111,-0.465,0.04
0.6888888888888889,-0.435,0.07
0.6916666666666667,-0.395,0.07
0.6944444444444444,-0.365,0.045
0.6972222222222222,-0.315,0.055
0.7,-0.265,0.08
0.7027777777777777,-0.2,0.09
0.7055555555555556,-0.155,0.09
0.7083333333333334,-0.09,0.08
0.7111111111111111,-0.04,0.09
0.7138888888888889,-0.015,0.1
0.7166666666666667,-0.01,0.105
0.7194444444444444,0.005,0.1
0.7222222222222222,0.03,0.1
0.725,0.055,0.13
0.7277777777777777,0.08,0.13
0.7305555555555555,0.085,0.095
0.7333333333333333,0.09,0.09
0.7361111111111112,0.11,0.09
0.7388888888888889,0.11,0.135
0.7416666666666667,0.13,0.14
0.7444444444444445,0.15,0.115
0.7472222222222222,0.155,0.1
0.75,0.15,0.115
0.7527777777777778,0.18,0.15
0.7555555555555555,0.185,0.135
0.7583333333333333,0.205,0.115
0.7611111111111111,0.22,0.11
0.7638888888888888,0.235,0.125
0.7666666666666667,0.235,0.15
0.7694444444444445,0.255,0.135
0.7722222222222223,0.27,0.125
0.775,0.29,0.15
0.7777777777777778,0.29,0.14
0.7805555555555556,0.3,0.125
0.7833333333333333,0.3,0.105
0.7861111111111111,0.305,0.115
0.7888888888888889,0.325,0.155
0.7916666666666666,0.315,0.165
0.7944444444444444,0.31,0.13
0.7972222222222223,0.315,0.12
0.8,0.315,0.145
0.8027777777777778,0.345,0.16
0.8055555555555556,0.36,0.155
0.8083333333333333,0.37,0.125
0.8111111111111111,0.375,0.125
0.8138888888888889,0.375,0.13
0.8166666666666667,0.365,0.155
0.8194444444444444,0.375,0.14
0.8222222222222222,0.385,0.13
0.825,0.41,0.145
0.8277777777777777,0.405,0.14
0.8305555555555556,0.4,0.125
0.8333333333333334,0.4,0.1
0.8361111111111111,0.405,0.13
0.8388888888888889,0.4,0.16
0.8416666666666667,0.41,0.15
0.8444444444444444,0.395,0.13
0.8472222222222222,0.4,0.105
0.85,0.385,0.14
0.8527777777777777,0.39,0.15
0.8555555555555555,0.395,0.14
0.8583333333333333,0.385,0.12
0.8611111111111112,0.38,0.135
0.8638888888888889,0.355,0.125
0.8666666666666667,0.355,0.13
0.8694444444444445,0.355,0.11
0.8722222222222222,0.35,0.125
0.875,0.325,0.14
0.8777777777777778,0.3,0.12
0.8805555555555555,0.28,0.09
0.8833333333333333,0.25,0.1
0.8861111111111111,0.25,0.11
0.8888888888888888,0.25,0.135
0.8916666666666667,0.25,0.13
0.8944444444444445,0.235,0.1
0.8972222222222223,0.21,0.095
0.9,0.175,0.115
0.9027777777777778,0.165,0.13
0.9055555555555556,0.16,0.115
0.9083333333333333,0.145,0.095
0.9111111111111111,0.14,0.105
0.9138888888888889,0.145,0.12
0.9166666666666666,0.13,0.11
0.9194444444444444,0.1,0.1
0.9222222222222223,0.08,0.11
0.925,0.04,0.125
0.9277777777777778,0.015,0.12
0.9305555555555556,-0.01,0.085
0.9333333333333333,-0.025,0.08
0.9361111111111111,-0.025,0.105
0.9388888888888889,-0.03,0.125
0.9416666666666667,-0.04,0.1
0.9444444444444444,-0.045,0.085
0.9472222222222222,-0.07,0.1
0.95,-0.105,0.105
0.9527777777777777,-0.08,0.1
0.9555555555555556,-0.075,0.09
0.9583333333333334,-0.085,0.09
0.9611111111111111,-0.09,0.115
0.9638888888888889,-0.11,0.1
0.9666666666666667,-0.13,0.085
0.9694444444444444,-0.12,0.105
0.9722222222222222,-0.115,0.12
0.975,-0.125,0.115
0.9777777777777777,-0.15,0.09
0.9805555555555555,-0.17,0.075
0.9833333333333333,-0.16,0.095
0.9861111111111112,-0.16,0.105
0.9888888888888889,-0.15,0.1
0.9916666666666667,-0.155,0.09
0.9944444444444445,-0.16,0.095
0.9972222222222222,-0.17,0.09
1.0,-0.185,0.08
1.0027777777777778,-0.18,0.07
1.0055555555555555,-0.18,0.1
1.0083333333333333,-0.19,0.1
1.011111111111111,-0.18,0.11
1.0138888888888888,-0.17,0.06
1.0166666666666666,-0.16,0.075
1.0194444444444444,-0.14,0.105
1.0222222222222221,-0.14,0.115
1.025,-0.145,0.08
1.0277777777777777,-0.17,0.07
1.0305555555555554,-0.18,0.075
1.0333333333333334,-0.175,0.1
1.0361111111111112,-0.16,0.095
1.038888888888889,-0.155,0.09
1.0416666666666667,-0.155,0.1
1.0444444444444445,-0.165,0.12
1.0472222222222223,-0.15,0.095
1.05,-0.155,0.065
1.0527777777777778,-0.15,0.09
1.0555555555555556,-0.145,0.115
1.0583333333333333,-0.145,0.105
1.0611111111111111,-0.165,0.09
1.0638888888888889,-0.195,0.075
1.0666666666666667,-0.205,0.1
1.0694444444444444,-0.19,0.105
1.0722222222222222,-0.18,0.09
1.075,-0.165,0.075
1.0777777777777777,-0.17,0.1
1.0805555555555555,-0.16,0.09
1.0833333333333333,-0.17,0.08
1.086111111111111,-0.165,0.085
1.0888888888888888,-0.17,0.1
1.0916666666666666,-0.17,0.11
1.0944444444444446,-0.17,0.075
1.0972222222222223,-0.17,0.035
1.1,-0.185,0.07
1.1027777777777779,-0.19,0.095
1.1055555555555556,-0.18,0.095
1.1083333333333334,-0.18,0.07
1.1111111111111112,-0.18,0.09
1.113888888888889,-0.175,0.08
1.1166666666666667,-0.2,0.07
1.1194444444444445,-0.21,0.055
1.1222222222222222,-0.2,0.075
1.125,-0.2,0.105
1.1277777777777778,-0.21,0.08
1.1305555555555555,-0.215,0.055
1.1333333333333333,-0.21,0.06
1.136111111111111,-0.2,0.09
1.1388888888888888,-0.175,0.075
1.1416666666666666,-0.16,0.06
1.1444444444444444,-0.145,0.05
1.1472222222222221,-0.145,0.07
1.15,-0.135,0.085
1.1527777777777777,-0.14,0.075
1.1555555555555554,-0.135,0.06
1.1583333333333334,-0.13,0.08
1.1611111111111112,-0.12,0.095
1.163888888888889,-0.115,0.07
1.1666666666666667,-0.11,0.06
1.1694444444444445,-0.105,0.075
1.1722222222222223,-0.1,0.105
1.175,-0.095,0.105
1.1777777777777778,-0.11,0.065
1.1805555555555556,-0.14,0.07
1.1833333333333333,-0.175,0.095
1.1861111111111111,-0.18,0.105
1.1888888888888889,-0.18,0.09
1.1916666666666667,-0.18,0.075
1.1944444444444444,-0.165,0.095
1.1972222222222222,-0.175,0.09
1.2,-0.175,0.07
1.2027777777777777,-0.175,0.07
1.2055555555555555,-0.165,0.09
1.2083333333333333,-0.165,0.11
1.211111111111111,-0.165,0.08
1.2138888888888888,-0.175,0.03
1.2166666666666666,-0.165,0.06
1.2194444444444446,-0.16,0.085
1.2222222222222223,-0.155,0.09
1.225,-0.15,0.07
1.2277777777777779,-0.155,0.075
1.2305555555555556,-0.16,0.08
1.2333333333333334,-0.16,0.08
1.2361111111111112,-0.155,0.06
1.238888888888889,-0.145,0.075
1.2416666666666667,-0.15,0.095
1.2444444444444445,-0.15,0.09
1.2472222222222222,-0.185,0.075
1.25,-0.2,0.06
1.2527777777777778,-0.2,0.09
1.2555555555555555,-0.195,0.105
1.2583333333333333,-0.19,0.085
1.261111111111111,-0.19,0.065
1.2638888888888888,-0.195,0.075
1.2666666666666666,-0.2,0.1
1.2694444444444444,-0.195,0.095
1.2722222222222221,-0.185,0.08
1.275,-0.175,0.08
1.2777777777777777,-0.175,0.095
1.2805555555555554,-0.155,0.09
1.2833333333333334,-0.17,0.06
1.2861111111111112,-0.17,0.07
1.288888888888889,-0.165,0.09
1.2916666666666667,-0.15,0.105
1.2944444444444445,-0.16,0.075
1.2972222222222223,-0.165,0.05
1.3,-0.175,0.075
1.3027777777777778,-0.17,0.105
1.3055555555555556,-0.17,0.105
1.3083333333333333,-0.185,0.085
1.3111111111111111,-0.215,0.07
1.3138888888888889,-0.225,0.085
1.3166666666666667,-0.19,0.09
1.3194444444444444,-0.125,0.075
1.3222222222222222,-0.04,0.08
1.325,0.05,0.1
1.3277777777777777,0.125,0.105
1.3305555555555555,0.215,0.065
1.3333333333333333,0.32,0.055
1.336111111111111,0.415,0.1
1.3388888888888888,0.5,0.11
1.3416666666666666,0.605,0.105
1.3444444444444446,0.725,0.09
1.3472222222222223,0.845,0.095
1.35,0.94,0.11
1.3527777777777779,1.06,0.125
1.3555555555555556,1.11,0.12
1.3583333333333334,1.1,0.1
1.3611111111111112,1.005,0.115
1.363888888888889,0.86,0.12
1.3666666666666667,0.615,0.115
1.3694444444444445,0.24,0.12
1.3722222222222222,-0.11,0.15
1.375,-0.335,0.175
1.3777777777777778,-0.46,0.155
1.3805555555555555,-0.515,0.135
1.3833333333333333,-0.54,0.135
1.386111111111111,-0.51,0.16
1.3888888888888888,-0.44,0.17
1.3916666666666666,-0.385,0.14
1.3944444444444444,-0.36,0.13
1.3972222222222221,-0.35,0.125
1.4,-0.335,0.145
1.4027777777777777,-0.32,0.14
1.4055555555555554,-0.295,0.13
1.4083333333333334,-0.3,0.115
1.4111111111111112,-0.3,0.135
1.413888888888889,-0.325,0.12
1.4166666666666667,-0.335,0.1
1.4194444444444445,-0.335,0.09
1.4222222222222223,-0.335,0.115
1.425,-0.325,0.13
1.4277777777777778,-0.31,0.115
1.4305555555555556,-0.3,0.08
1.4333333333333333,-0.28,0.085
1.4361111111111111,-0.26,0.11
1.4388888888888889,-0.24,0.12
1.4416666666666667,-0.245,0.095
1.4444444444444444,-0.26,0.08
1.4472222222222222,-0.27,0.085
1.45,-0.28,0.1
1.4527777777777777,-0.28,0.11
1.4555555555555555,-0.275,0.085
1.4583333333333333,-0.27,0.09
1.461111111111111,-0.275,0.085
1.4638888888888888,-0.28,0.095
1.4666666666666666,-0.255,0.09
1.4694444444444446,-0.25,0.08
1.4722222222222223,-0.24,0.075
1.475,-0.235,0.105
1.4777777777777779,-0.235,0.09
1.4805555555555556,-0.235,0.07
1.4833333333333334,-0.24,0.055
1.4861111111111112,-0.235,0.075
1.488888888888889,-0.235,0.105
1.4916666666666667,-0.23,0.095
1.4944444444444445,-0.24,0.07
1.4972222222222222,-0.225,0.055
1.5,-0.23,0.085
1.5027777777777778,-0.225,0.105
1.5055555555555555,-0.21,0.11
1.5083333333333333,-0.195,0.085
1.511111111111111,-0.215,0.085
1.5138888888888888,-0.22,0.095
1.5166666666666666,-0.24,0.09
1.5194444444444444,-0.23,0.08
1.5222222222222221,-0.23,0.08
1.525,-0.215,0.095
1.5277777777777777,-0.21,0.1
1.5305555555555554,-0.21,0.08
1.5333333333333334,-0.22,0.065
1.5361111111111112,-0.205,0.075
1.538888888888889,-0.18,0.09
1.5416666666666667,-0.185,0.1
1.5444444444444445,-0.19,0.085
1.5472222222222223,-0.19,0.05
1.55,-0.195,0.065
1.5527777777777778,-0.16,0.09
1.5555555555555556,-0.14,0.12
1.5583333333333333,-0.13,0.09
1.5611111111111111,-0.125,0.07
1.5638888888888889,-0.13,0.07
1.5666666666666667,-0.14,0.095
1.5694444444444444,-0.13,0.095
1.5722222222222222,-0.12,0.09
1.575,-0.125,0.08
1.5777777777777777,-0.125,0.08
1.5805555555555555,-0.145,0.095
1.5833333333333333,-0.125,0.1
1.586111111111111,-0.12,0.085
1.5888888888888888,-0.125,0.085
1.5916666666666666,-0.115,0.095
1.5944444444444446,-0.12,0.1
1.5972222222222223,-0.14,0.09
1.6,-0.15,0.06
1.6027777777777779,-0.145,0.065
1.6055555555555556,-0.135,0.095
1.6083333333333334,-0.11,0.105
1.6111111111111112,-0.105,0.085
1.613888888888889,-0.1,0.055
1.6166666666666667,-0.085,0.06
1.6194444444444445,-0.095,0.085
1.6222222222222222,-0.08,0.095
1.625,-0.065,0.09
1.6277777777777778,-0.07,0.06
1.6305555555555555,-0.07,0.065
1.6333333333333333,-0.075,0.105
1.636111111111111,-0.07,0.095
1.6388888888888888,-0.06,0.085
1.6416666666666666,-0.055,0.08
1.6444444444444444,-0.05,0.09
1.6472222222222221,-0.075,0.1
1.65,-0.065,0.1
1.6527777777777777,-0.065,0.08
1.6555555555555554,-0.07,0.1
1.6583333333333334,-0.08,0.11
1.6611111111111112,-0.08,0.11
1.663888888888889,-0.08,0.07
1.6666666666666667,-0.08,0.065
1.6694444444444445,-0.08,0.1
1.6722222222222223,-0.08,0.11
1.675,-0.075,0.105
1.6777777777777778,-0.09,0.085
1.6805555555555556,-0.09,0.07
1.6833333333333333,-0.085,0.1
1.6861111111111111,-0.09,0.12
1.6888888888888889,-0.075,0.11
1.6916666666666667,-0.075,0.07
1.6944444444444444,-0.07,0.08
1.6972222222222222,-0.075,0.1
1.7,-0.09,0.105
1.7027777777777777,-0.075,0.085
1.7055555555555555,-0.065,0.09
1.7083333333333333,-0.07,0.09
1.711111111111111,-0.07,0.1
1.7138888888888888,-0.085,0.1
1.7166666666666666,-0.09,0.095
1.7194444444444446,-0.09,0.065
1.7222222222222223,-0.08,0.09
1.725,-0.1,0.1
1.7277777777777779,-0.105,0.105
1.7305555555555556,-0.115,0.075
1.7333333333333334,-0.12,0.06
1.7361111111111112,-0.115,0.085
1.738888888888889,-0.1,0.12
1.7416666666666667,-0.105,0.115
1.7444444444444445,-0.12,0.075
1.7472222222222222,-0.14,0.065
1.75,-0.14,0.1
1.7527777777777778,-0.115,0.115
1.7555555555555555,-0.07,0.105
1.7583333333333333,-0.075,0.09
1.761111111111111,-0.09,0.1
1.7638888888888888,-0.105,0.1
1.7666666666666666,-0.115,0.11
1.7694444444444444,-0.11,0.105
1.7722222222222221,-0.11,0.11
1.775,-0.13,0.115
1.7777777777777777,-0.135,0.115
1.7805555555555554,-0.15,0.09
1.7833333333333334,-0.13,0.08
1.7861111111111112,-0.125,0.09
1.788888888888889,-0.125,0.12
1.7916666666666667,-0.14,0.11
1.7944444444444445,-0.155,0.085
1.7972222222222223,-0.155,0.075
1.8,-0.155,0.095
1.8027777777777778,-0.155,0.095
1.8055555555555556,-0.145,0.1
1.8083333333333333,-0.13,0.09
1.8111111111111111,-0.13,0.08
1.8138888888888889,-0.13,0.09
1.8166666666666667,-0.12,0.105
1.8194444444444444,-0.11,0.09
1.8222222222222222,-0.09,0.085
1.825,-0.07,0.1
1.8277777777777777,-0.06,0.105
1.8305555555555555,-0.08,0.085
1.8333333333333333,-0.075,0.075
1.836111111111111,-0.05,0.085
1.8388888888888888,-0.015,0.12
1.8416666666666666,0.005,0.115
1.8444444444444446,0.02,0.1
1.8472222222222223,0.02,0.08
1.85,0.04,0.09
1.8527777777777779,0.06,0.095
1.8555555555555556,0.08,0.1
1.8583333333333334,0.105,0.085
1.8611111111111112,0.11,0.07
1.863888888888889,0.095,0.065
1.8666666666666667,0.12,0.065
1.8694444444444445,0.2,0.065
1.8722222222222222,0.265,0.045
1.875,0.265,0.04
1.8777777777777778,0.22,0.045
1.8805555555555555,0.2,0.015
1.8833333333333333,0.19,0.005
1.886111111111111,0.15,0.01
1.8888888888888888,0.035,0.04
1.8916666666666666,-0.225,0.03
1.8944444444444444,-0.625,0.02
1.8972222222222221,-1.09,-0.005
1.9,-1.475,0.01
1.9027777777777777,-1.745,0.025
1.9055555555555554,-1.895,0.025
1.9083333333333334,-1.955,0.015
1.9111111111111112,-1.995,0.01
1.913888888888889,-2.01,0.02
1.9166666666666667,-2.0,0.025
1.9194444444444445,-1.965,0.03
1.9222222222222223,-1.905,0.04
1.925,-1.845,0.05
1.9277777777777778,-1.75,0.065
1.9305555555555556,-1.605,0.05
1.9333333333333333,-1.475,0.05
1.9361111111111111,-1.35,0.075
1.9388888888888889,-1.275,0.12
1.9416666666666667,-1.235,0.105
1.9444444444444444,-1.18,0.09
1.9472222222222222,-1.105,0.085
1.95,-1.035,0.105
1.9527777777777777,-0.94,0.11
1.9555555555555555,-0.83,0.095
1.9583333333333333,-0.77,0.105
1.961111111111111,-0.715,0.105
1.9638888888888888,-0.665,0.11
1.9666666666666666,-0.605,0.1
1.9694444444444446,-0.52,0.1
1.9722222222222223,-0.465,0.11
1.975,-0.42,0.115
1.9777777777777779,-0.4,0.1
1.9805555555555556,-0.39,0.09
1.9833333333333334,-0.375,0.09
1.9861111111111112,-0.34,0.115
1.988888888888889,-0.305,0.13
1.9916666666666667,-0.27,0.115
1.9944444444444445,-0.19,0.115
1.9972222222222222,-0.125,0.12
2.0,-0.06,0.12
2.0027777777777778,-0.005,0.125
2.0055555555555555,0.05,0.125
2.0083333333333333,0.11,0.145
2.011111111111111,0.15,0.155
2.013888888888889,0.185,0.145
2.0166666666666666,0.21,0.135
2.0194444444444444,0.23,0.155
2.022222222222222,0.26,0.17
2.025,0.285,0.165
2.0277777777777777,0.325,0.145
2.0305555555555554,0.33,0.14
2.033333333333333,0.325,0.15
2.036111111111111,0.35,0.175
2.0388888888888888,0.39,0.175
2.0416666666666665,0.43,0.17
2.0444444444444443,0.47,0.17
2.047222222222222,0.465,0.17
2.05,0.485,0.145
2.0527777777777776,0.505,0.15
2.0555555555555554,0.52,0.165
2.058333333333333,0.54,0.175
2.061111111111111,0.56,0.15
2.063888888888889,0.585,0.14
2.066666666666667,0.6,0.16
2.0694444444444446,0.62,0.16
2.0722222222222224,0.645,0.16
2.075,0.655,0.15
2.077777777777778,0.675,0.165
2.0805555555555557,0.68,0.17
2.0833333333333335,0.695,0.16
2.0861111111111112,0.715,0.175
2.088888888888889,0.755,0.19
2.091666666666667,0.785,0.195
2.0944444444444446,0.805,0.175
2.0972222222222223,0.795,0.155
2.1,0.805,0.17
2.102777777777778,0.82,0.195
2.1055555555555556,0.84,0.195
2.1083333333333334,0.865,0.18
2.111111111111111,0.855,0.17
2.113888888888889,0.85,0.17
2.1166666666666667,0.835,0.17
2.1194444444444445,0.83,0.165
2.1222222222222222,0.835,0.19
2.125,0.825,0.19
2.1277777777777778,0.8,0.18
2.1305555555555555,0.79,0.16
2.1333333333333333,0.77,0.17
2.136111111111111,0.78,0.185
2.138888888888889,0.77,0.185
2.1416666666666666,0.755,0.16
2.1444444444444444,0.715,0.165
2.147222222222222,0.68,0.165
2.15,0.665,0.18
2.1527777777777777,0.64,0.185
2.1555555555555554,0.615,0.19
2.158333333333333,0.605,0.19
2.161111111111111,0.585,0.18
2.1638888888888888,0.56,0.155
2.1666666666666665,0.53,0.165
2.1694444444444443,0.495,0.195
2.172222222222222,0.46,0.2
2.175,0.435,0.19
2.1777777777777776,0.4,0.18
2.1805555555555554,0.36,0.165
2.183333333333333,0.325,0.175
2.186111111111111,0.29,0.17
2.188888888888889,0.275,0.17
2.191666666666667,0.245,0.185
2.1944444444444446,0.205,0.18
2.1972222222222224,0.185,0.16
2.2,0.185,0.17
2.202777777777778,0.175,0.18
2.2055555555555557,0.165,0.185
2.2083333333333335,0.155,0.175
2.2111111111111112,0.14,0.165
2.213888888888889,0.13,0.16
2.216666666666667,0.11,0.175
2.2194444444444446,0.095,0.16
2.2222222222222223,0.075,0.175
2.225,0.055,0.185
2.227777777777778,0.035,0.155
2.2305555555555556,0.015,0.125
2.2333333333333334,-0.005,0.135
2.236111111111111,0.01,0.165
2.238888888888889,0.015,0.175
2.2416666666666667,0.0,0.155
2.2444444444444445,-0.02,0.155
2.2472222222222222,-0.04,0.155
2.25,-0.055,0.145
2.2527777777777778,-0.035,0.125
2.2555555555555555,-0.005,0.14
2.2583333333333333,0.005,0.165
2.261111111111111,-0.005,0.15
2.263888888888889,-0.025,0.13
2.2666666666666666,-0.02,0.145
2.2694444444444444,-0.01,0.15
2.272222222222222,-0.015,0.15
2.275,-0.02,0.135
2.2777777777777777,-0.03,0.13
2.2805555555555554,-0.045,0.145
2.283333333333333,-0.06,0.14
2.286111111111111,-0.065,0.125
2.2888888888888888,-0.06,0.14
2.2916666666666665,-0.05,0.15
2.2944444444444443,-0.06,0.125
2.297222222222222,-0.085,0.1
2.3,-0.09,0.125
2.3027777777777776,-0.11,0.145
2.3055555555555554,-0.105,0.145
2.308333333333333,-0.095,0.14
2.311111111111111,-0.085,0.14
2.313888888888889,-0.075,0.13
2.316666666666667,-0.08,0.12
2.3194444444444446,-0.095,0.12
2.3222222222222224,-0.095,0.15
2.325,-0.09,0.16
2.327777777777778,-0.095,0.135
2.3305555555555557,-0.115,0.12
2.3333333333333335,-0.115,0.15
2.3361111111111112,-0.12,0.14
2.338888888888889,-0.11,0.13
2.341666666666667,-0.095,0.125
2.3444444444444446,-0.105,0.145
2.3472222222222223,-0.11,0.135
2.35,-0.125,0.13
2.352777777777778,-0.115,0.13
2.3555555555555556,-0.09,0.16
2.3583333333333334,-0.095,0.155
2.361111111111111,-0.11,0.135
2.363888888888889,-0.125,0.115
2.3666666666666667,-0.135,0.15
2.3694444444444445,-0.13,0.15
2.3722222222222222,-0.125,0.145
2.375,-0.125,0.135
2.3777777777777778,-0.135,0.155
2.3805555555555555,-0.145,0.13
2.3833333333333333,-0.155,0.115
2.386111111111111,-0.145,0.12
2.388888888888889,-0.13,0.15
2.3916666666666666,-0.135,0.16
2.3944444444444444,-0.14,0.135
2.397222222222222,-0.155,0.125
2.4,-0.155,0.14
2.4027777777777777,-0.135,0.14
2.4055555555555554,-0.125,0.14
2.408333333333333,-0.13,0.13
2.411111111111111,-0.135,0.145
2.4138888888888888,-0.145,0.14
2.4166666666666665,-0.165,0.135
2.4194444444444443,-0.19,0.14
2.422222222222222,-0.175,0.16
2.425,-0.15,0.155
2.4277777777777776,-0.135,0.135
2.4305555555555554,-0.125,0.115
2.433333333333333,-0.145,0.145
2.436111111111111,-0.11,0.16
2.438888888888889,-0.09,0.16
2.441666666666667,-0.07,0.145
2.4444444444444446,-0.075,0.155
2.4472222222222224,-0.09,0.145
2.45,-0.135,0.135
2.452777777777778,-0.15,0.13
2.4555555555555557,-0.155,0.15
2.4583333333333335,-0.155,0.17
2.4611111111111112,-0.12,0.175
2.463888888888889,-0.1,0.14
2.466666666666667,-0.08,0.14
2.4694444444444446,-0.065,0.165
2.4722222222222223,-0.075,0.17
2.475,-0.095,0.155
2.477777777777778,-0.1,0.145
2.4805555555555556,-0.095,0.16
2.4833333333333334,-0.085,0.175
2.486111111111111,-0.08,0.18
2.488888888888889,-0.08,0.18
2.4916666666666667,-0.08,0.19
2.4944444444444445,-0.095,0.18
2.4972222222222222,-0.12,0.17
2.5,-0.125,0.145
2.5027777777777778,-0.125,0.165
2.5055555555555555,-0.125,0.19
2.5083333333333333,-0.13,0.185
2.511111111111111,-0.135,0.155
2.513888888888889,-0.13,0.155
2.5166666666666666,-0.13,0.165
2.5194444444444444,-0.12,0.19
2.522222222222222,-0.115,0.185
2.525,-0.105,0.155
2.5277777777777777,-0.12,0.15
2.5305555555555554,-0.145,0.145
2.533333333333333,-0.135,0.17
2.536111111111111,-0.11,0.175
2.5388888888888888,-0.11,0.18
2.5416666666666665,-0.11,0.19
2.5444444444444443,-0.125,0.185
2.547222222222222,-0.105,0.185
2.55,-0.1,0.16
2.5527777777777776,-0.08,0.175
2.5555555555555554,-0.05,0.2
2.558333333333333,-0.03,0.205
2.561111111111111,-0.07,0.185
2.563888888888889,-0.12,0.165
2.566666666666667,-0.185,0.185
2.5694444444444446,-0.215,0.185
2.5722222222222224,-0.22,0.18
2.575,-0.185,0.15
2.577777777777778,-0.16,0.155
2.5805555555555557,-0.16,0.165
2.5833333333333335,-0.145,0.17
2.5861111111111112,-0.15,0.16
2.588888888888889,-0.13,0.17
2.591666666666667,-0.14,0.18
2.5944444444444446,-0.15,0.17
2.5972222222222223,-0.17,0.15
2.6,-0.19,0.145
2.602777777777778,-0.185,0.165
2.6055555555555556,-0.17,0.185
2.6083333333333334,-0.175,0.18
2.611111111111111,-0.165,0.155
2.613888888888889,-0.16,0.16
2.6166666666666667,-0.18,0.175
2.6194444444444445,-0.175,0.18
2.6222222222222222,-0.185,0.17
2.625,-0.185,0.16
2.6277777777777778,-0.19,0.165
2.6305555555555555,-0.205,0.16
2.6333333333333333,-0.21,0.15
2.636111111111111,-0.215,0.15
2.638888888888889,-0.215,0.165
2.6416666666666666,-0.18,0.17
2.6444444444444444,-0.125,0.16
2.647222222222222,-0.075,0.14
2.65,0.0,0.13
2.6527777777777777,0.085,0.15
2.6555555555555554,0.19,0.175
2.658333333333333,0.29,0.17
2.661111111111111,0.36,0.145
2.6638888888888888,0.44,0.14
2.6666666666666665,0.535,0.16
2.6694444444444443,0.68,0.165
2.672222222222222,0.8,0.16
2.675,0.905,0.145
2.6777777777777776,0.995,0.165
2.6805555555555554,1.025,0.17
2.683333333333333,1.005,0.165
2.686111111111111,0.92,0.155
2.688888888888889,0.79,0.175
2.691666666666667,0.57,0.205
2.6944444444444446,0.225,0.195
2.6972222222222224,-0.12,0.185
2.7,-0.335,0.18
2.702777777777778,-0.43,0.19
2.7055555555555557,-0.505,0.215
2.7083333333333335,-0.52,0.205
2.7111111111111112,-0.495,0.19
2.713888888888889,-0.44,0.19
2.716666666666667,-0.4,0.19
2.7194444444444446,-0.365,0.175
2.7222222222222223,-0.37,0.16
2.725,-0.385,0.155
2.727777777777778,-0.36,0.18
2.7305555555555556,-0.37,0.175
2.7333333333333334,-0.38,0.135
2.736111111111111,-0.39,0.135
2.738888888888889,-0.415,0.145
2.7416666666666667,-0.405,0.155
2.7444444444444445,-0.405,0.11
2.7472222222222222,-0.405,0.09
2.75,-0.415,0.105
2.7527777777777778,-0.41,0.13
2.7555555555555555,-0.395,0.145
2.7583333333333333,-0.385,0.11
2.761111111111111,-0.385,0.095
2.763888888888889,-0.385,0.105
2.7666666666666666,-0.365,0.12
2.7694444444444444,-0.355,0.09
2.772222222222222,-0.345,0.09
2.775,-0.335,0.115
2.7777777777777777,-0.355,0.09
2.7805555555555554,-0.39,0.07
2.783333333333333,-0.4,0.075
2.786111111111111,-0.39,0.115
2.7888888888888888,-0.36,0.11
2.7916666666666665,-0.33,0.075
2.7944444444444443,-0.34,0.05
2.797222222222222,-0.38,0.07
2.8,-0.395,0.11
2.8027777777777776,-0.405,0.105
2.8055555555555554,-0.39,0.075
2.808333333333333,-0.395,0.08
2.811111111111111,-0.39,0.09
2.813888888888889,-0.4,0.08
2.816666666666667,-0.4,0.07
2.8194444444444446,-0.395,0.07
2.8222222222222224,-0.39,0.09
2.825,-0.385,0.09
2.827777777777778,-0.39,0.065
2.8305555555555557,-0.385,0.06
2.8333333333333335,-0.385,0.075
2.8361111111111112,-0.38,0.1
2.838888888888889,-0.37,0.07
2.841666666666667,-0.34,0.045
2.8444444444444446,-0.335,0.065
2.8472222222222223,-0.335,0.095
2.85,-0.33,0.095
2.852777777777778,-0.325,0.085
2.8555555555555556,-0.35,0.095
2.8583333333333334,-0.365,0.1
2.861111111111111,-0.355,0.085
2.863888888888889,-0.345,0.055
2.8666666666666667,-0.34,0.085
2.8694444444444445,-0.34,0.11
2.8722222222222222,-0.36,0.1
2.875,-0.35,0.09
2.8777777777777778,-0.345,0.09
2.8805555555555555,-0.35,0.095
2.8833333333333333,-0.355,0.08
2.886111111111111,-0.345,0.08
2.888888888888889,-0.34,0.08
2.8916666666666666,-0.335,0.09
2.8944444444444444,-0.345,0.075
2.897222222222222,-0.365,0.055
2.9,-0.35,0.075
2.9027777777777777,-0.35,0.095
2.9055555555555554,-0.335,0.075
2.908333333333333,-0.33,0.055
2.911111111111111,-0.31,0.045
2.9138888888888888,-0.29,0.075
2.9166666666666665,-0.285,0.09
2.9194444444444443,-0.265,0.075
2.922222222222222,-0.275,0.08
2.925,-0.28,0.08
2.9277777777777776,-0.3,0.08
2.9305555555555554,-0.305,0.065
2.933333333333333,-0.305,0.07
2.936111111111111,-0.295,0.1
2.938888888888889,-0.285,0.1
2.941666666666667,-0.305,0.085
2.9444444444444446,-0.32,0.06
2.9472222222222224,-0.32,0.085
2.95,-0.305,0.1
2.952777777777778,-0.275,0.1
2.9555555555555557,-0.265,0.07
2.9583333333333335,-0.275,0.08
2.9611111111111112,-0.285,0.095
2.963888888888889,-0.28,0.09
2.966666666666667,-0.27,0.095
2.9694444444444446,-0.26,0.115
2.9722222222222223,-0.25,0.135
2.975,-0.255,0.095
2.977777777777778,-0.255,0.07
2.9805555555555556,-0.265,0.09
2.9833333333333334,-0.265,0.125
2.986111111111111,-0.25,0.125
2.988888888888889,-0.26,0.105
2.9916666666666667,-0.245,0.11
2.9944444444444445,-0.26,0.115
2.9972222222222222,-0.285,0.095
3.0,-0.29,0.08
3.0027777777777778,-0.29,0.105
3.0055555555555555,-0.28,0.13
3.0083333333333333,-0.285,0.105
3.011111111111111,-0.285,0.095
3.013888888888889,-0.28,0.095
3.0166666666666666,-0.31,0.12
3.0194444444444444,-0.31,0.115
3.022222222222222,-0.3,0.09
3.025,-0.285,0.095
3.0277777777777777,-0.275,0.1
3.0305555555555554,-0.295,0.11
3.033333333333333,-0.305,0.1
3.036111111111111,-0.3,0.095
3.0388888888888888,-0.3,0.115
3.0416666666666665,-0.32,0.115
3.0444444444444443,-0.3,0.085
3.047222222222222,-0.305,0.06
3.05,-0.315,0.095
3.0527777777777776,-0.305,0.12
3.0555555555555554,-0.295,0.11
3.058333333333333,-0.295,0.075
3.061111111111111,-0.305,0.095
3.063888888888889,-0.335,0.11
3.066666666666667,-0.335,0.105
3.0694444444444446,-0.34,0.08
3.0722222222222224,-0.335,0.095
3.075,-0.335,0.1
3.077777777777778,-0.345,0.1
3.0805555555555557,-0.36,0.075
3.0833333333333335,-0.365,0.085
3.0861111111111112,-0.355,0.12
3.088888888888889,-0.335,0.105
3.091666666666667,-0.33,0.075
3.0944444444444446,-0.32,0.075
3.0972222222222223,-0.31,0.105
3.1,-0.295,0.095
3.102777777777778,-0.275,0.09
3.1055555555555556,-0.25,0.115
3.1083333333333334,-0.23,0.105
3.111111111111111,-0.21,0.075
3.113888888888889,-0.2,0.07
3.1166666666666667,-0.175,0.095
3.1194444444444445,-0.15,0.115
3.1222222222222222,-0.14,0.09
3.125,-0.145,0.08
3.1277777777777778,-0.155,0.075
3.1305555555555555,-0.155,0.085
3.1333333333333333,-0.13,0.06
3.136111111111111,-0.13,0.03
3.138888888888889,-0.115,0.03
3.1416666666666666,-0.105,0.04
3.1444444444444444,-0.06,0.025
3.147222222222222,-0.04,-0.01
3.15,-0.045,0.0
3.1527777777777777,-0.085,0.02
3.1555555555555554,-0.16,0.015
3.158333333333333,-0.26,-0.04
3.161111111111111,-0.43,-0.05
3.1638888888888888,-0.69,-0.03
3.1666666666666665,-1.06,-0.005
3.1694444444444443,-1.425,-0.015
3.172222222222222,-1.73,-0.035
3.175,-1.93,-0.02
3.1777777777777776,-2.035,0.015
3.1805555555555554,-2.065,0.005
3.183333333333333,-2.06,-0.02
3.186111111111111,-2.08,0.005
3.188888888888889,-2.055,0.035
3.191666666666667,-1.995,0.04
3.1944444444444446,-1.9,0.025
3.1972222222222224,-1.805,0.035
3.2,-1.705,0.085
3.202777777777778,-1.635,0.11
3.2055555555555557,-1.54,0.105
3.2083333333333335,-1.44,0.09
3.2111111111111112,-1.325,0.11
3.213888888888889,-1.235,0.125
3.216666666666667,-1.145,0.14
3.2194444444444446,-1.065,0.13
3.2222222222222223,-0.995,0.14
3.225,-0.94,0.145
3.227777777777778,-0.915,0.135
3.2305555555555556,-0.87,0.1
3.2333333333333334,-0.83,0.095
3.236111111111111,-0.76,0.13
3.238888888888889,-0.69,0.135
3.2416666666666667,-0.655,0.115
3.2444444444444445,-0.625,0.08
3.2472222222222222,-0.61,0.1
3.25,-0.585,0.12
3.2527777777777778,-0.565,0.115
3.2555555555555555,-0.53,0.085
3.2583333333333333,-0.49,0.09
3.261111111111111,-0.47,0.11
3.263888888888889,-0.42,0.105
3.2666666666666666,-0.35,0.09
3.2694444444444444,-0.275,0.1
3.272222222222222,-0.205,0.12
3.275,-0.155,0.135
3.2777777777777777,-0.12,0.11
3.2805555555555554,-0.09,0.1
3.283333333333333,-0.03,0.115
3.286111111111111,0.02,0.15
3.2888888888888888,0.06,0.145
3.2916666666666665,0.08,0.125
3.2944444444444443,0.095,0.12
3.297222222222222,0.13,0.15
3.3,0.15,0.14
3.3027777777777776,0.17,0.135
3.3055555555555554,0.18,0.135
3.308333333333333,0.185,0.155
3.311111111111111,0.21,0.15
3.313888888888889,0.225,0.125
3.316666666666667,0.245,0.13
3.3194444444444446,0.27,0.155
3.3222222222222224,0.3,0.155
3.325,0.315,0.13
3.327777777777778,0.31,0.115
3.3305555555555557,0.315,0.125
3.3333333333333335,0.35,0.165
3.3361111111111112,0.37,0.16
3.338888888888889,0.365,0.135
3.341666666666667,0.37,0.145
3.3444444444444446,0.385,0.15
3.3472222222222223,0.4,0.16
3.35,0.425,0.155
3.352777777777778,0.47,0.145
3.3555555555555556,0.49,0.165
3.3583333333333334,0.505,0.175
3.361111111111111,0.505,0.175
3.363888888888889,0.53,0.145
3.3666666666666667,0.53,0.165
3.3694444444444445,0.535,0.195
3.3722222222222222,0.54,0.185
3.375,0.545,0.155
3.3777777777777778,0.545,0.14
3.3805555555555555,0.57,0.145
3.3833333333333333,0.58,0.175
3.386111111111111,0.57,0.175
3.388888888888889,0.575,0.15
3.3916666666666666,0.56,0.16
3.3944444444444444,0.55,0.175
3.397222222222222,0.545,0.18
3.4,0.555,0.165
3.4027777777777777,0.55,0.155
3.4055555555555554,0.56,0.155
3.408333333333333,0.55,0.18
3.411111111111111,0.53,0.155
3.4138888888888888,0.5,0.14
3.4166666666666665,0.48,0.165
3.4194444444444443,0.465,0.19
3.422222222222222,0.465,0.165
3.425,0.44,0.145
3.4277777777777776,0.405,0.135
3.4305555555555554,0.395,0.155
3.433333333333333,0.375,0.165
3.436111111111111,0.36,0.165
3.438888888888889,0.355,0.14
3.441666666666667,0.345,0.15
3.4444444444444446,0.29,0.16
3.4472222222222224,0.25,0.145
3.45,0.22,0.13
3.452777777777778,0.195,0.14
3.4555555555555557,0.175,0.16
3.4583333333333335,0.15,0.155
3.4611111111111112,0.12,0.125
3.463888888888889,0.095,0.125
3.466666666666667,0.065,0.135
3.4694444444444446,0.055,0.165
3.4722222222222223,0.035,0.155
3.475,0.02,0.125
3.477777777777778,-0.005,0.115
3.4805555555555556,-0.025,0.135
3.4833333333333334,-0.04,0.15
3.486111111111111,-0.065,0.15
3.488888888888889,-0.07,0.13
3.4916666666666667,-0.08,0.14
3.4944444444444445,-0.1,0.15
3.4972222222222222,-0.115,0.145
3.5,-0.135,0.125
3.5027777777777778,-0.13,0.135
3.5055555555555555,-0.14,0.15
3.5083333333333333,-0.155,0.145
3.511111111111111,-0.16,0.115
3.513888888888889,-0.17,0.115
3.5166666666666666,-0.17,0.135
3.5194444444444444,-0.175,0.155
3.522222222222222,-0.18,0.145
3.525,-0.205,0.115
3.5277777777777777,-0.21,0.115
3.5305555555555554,-0.225,0.14
3.533333333333333,-0.215,0.145
3.536111111111111,-0.2,0.14
3.5388888888888888,-0.185,0.135
3.5416666666666665,-0.2,0.125
3.5444444444444443,-0.22,0.14
3.547222222222222,-0.23,0.145
3.55,-0.23,0.12
3.5527777777777776,-0.21,0.12
3.5555555555555554,-0.195,0.145
3.558333333333333,-0.205,0.135
3.561111111111111,-0.215,0.12
3.563888888888889,-0.225,0.11
3.566666666666667,-0.21,0.13
3.5694444444444446,-0.2,0.155
3.5722222222222224,-0.195,0.155
3.575,-0.2,0.11
3.577777777777778,-0.22,0.115
3.5805555555555557,-0.23,0.13
3.5833333333333335,-0.235,0.14
3.5861111111111112,-0.23,0.13
3.588888888888889,-0.23,0.11
3.591666666666667,-0.225,0.12
3.5944444444444446,-0.24,0.12
3.5972222222222223,-0.255,0.14
3.6,-0.25,0.115
3.602777777777778,-0.23,0.125
3.6055555555555556,-0.225,0.125
3.6083333333333334,-0.24,0.13
3.611111111111111,-0.24,0.115
3.613888888888889,-0.26,0.12
3.6166666666666667,-0.25,0.125
3.6194444444444445,-0.245,0.155
3.6222222222222222,-0.23,0.15
3.625,-0.215,0.115
3.6277777777777778,-0.22,0.105
3.6305555555555555,-0.225,0.125
3.6333333333333333,-0.225,0.14
3.636111111111111,-0.23,0.145
3.638888888888889,-0.215,0.125
3.6416666666666666,-0.215,0.125
3.6444444444444444,-0.245,0.14
3.647222222222222,-0.25,0.135
3.65,-0.245,0.12
3.6527777777777777,-0.24,0.135
3.6555555555555554,-0.24,0.14
3.658333333333333,-0.23,0.135
3.661111111111111,-0.23,0.105
3.6638888888888888,-0.245,0.115
3.6666666666666665,-0.24,0.14
3.6694444444444443,-0.245,0.155
3.672222222222222,-0.24,0.135
3.675,-0.245,0.12
3.6777777777777776,-0.245,0.13
3.6805555555555554,-0.25,0.135
3.683333333333333,-0.25,0.125
3.686111111111111,-0.225,0.12
3.688888888888889,-0.24,0.115
3.691666666666667,-0.24,0.135
3.6944444444444446,-0.235,0.115
3.6972222222222224,-0.24,0.1
3.7,-0.24,0.105
3.702777777777778,-0.24,0.135
3.7055555555555557,-0.24,0.135
3.7083333333333335,-0.255,0.095
3.7111111111111112,-0.255,0.08
3.713888888888889,-0.26,0.105
3.716666666666667,-0.225,0.125
3.7194444444444446,-0.225,0.11
3.7222222222222223,-0.22,0.09
3.725,-0.215,0.09
3.727777777777778,-0.225,0.11
3.7305555555555556,-0.235,0.095
3.7333333333333334,-0.25,0.09
3.736111111111111,-0.245,0.115
3.738888888888889,-0.245,0.13
3.7416666666666667,-0.25,0.115
3.7444444444444445,-0.255,0.08
3.7472222222222222,-0.24,0.09
3.75,-0.215,0.125
3.7527777777777778,-0.21,0.125
3.7555555555555555,-0.215,0.105
3.7583333333333333,-0.225,0.09
3.761111111111111,-0.23,0.105
3.763888888888889,-0.23,0.11
3.7666666666666666,-0.225,0.1
3.7694444444444444,-0.225,0.105
3.772222222222222,-0.23,0.12
3.775,-0.225,0.11
3.7777777777777777,-0.22,0.085
3.7805555555555554,-0.22,0.09
3.783333333333333,-0.21,0.105
3.786111111111111,-0.19,0.14
3.7888888888888888,-0.175,0.125
3.7916666666666665,-0.165,0.105
3.7944444444444443,-0.17,0.115
3.797222222222222,-0.175,0.12
3.8,-0.17,0.115
3.8027777777777776,-0.155,0.13
3.8055555555555554,-0.145,0.13
3.808333333333333,-0.14,0.14
3.811111111111111,-0.135,0.11
3.813888888888889,-0.135,0.1
3.816666666666667,-0.135,0.12
3.8194444444444446,-0.14,0.13
3.8222222222222224,-0.145,0.11
3.825,-0.155,0.095
3.827777777777778,-0.16,0.095
3.8305555555555557,-0.18,0.11
3.8333333333333335,-0.185,0.105
3.8361111111111112,-0.185,0.095
3.838888888888889,-0.18,0.11
3.841666666666667,-0.195,0.105
3.8444444444444446,-0.205,0.085
3.8472222222222223,-0.215,0.085
3.85,-0.22,0.095
3.852777777777778,-0.22,0.125
3.8555555555555556,-0.225,0.095
3.8583333333333334,-0.22,0.085
3.861111111111111,-0.215,0.095
3.863888888888889,-0.21,0.095
3.8666666666666667,-0.21,0.09
3.8694444444444445,-0.205,0.09
3.8722222222222222,-0.195,0.115
3.875,-0.2,0.12
3.8777777777777778,-0.2,0.105
3.8805555555555555,-0.2,0.1
3.8833333333333333,-0.185,0.12
3.886111111111111,-0.185,0.13
3.888888888888889,-0.19,0.105
3.8916666666666666,-0.185,0.095
3.8944444444444444,-0.19,0.095
3.897222222222222,-0.2,0.1
3.9,-0.21,0.105
3.9027777777777777,-0.215,0.11
3.9055555555555554,-0.225,0.115
3.908333333333333,-0.25,0.105
3.911111111111111,-0.245,0.09
3.9138888888888888,-0.23,0.11
3.9166666666666665,-0.235,0.12
3.9194444444444443,-0.235,0.115
3.922222222222222,-0.22,0.11
3.925,-0.215,0.105
3.9277777777777776,-0.21,0.105
3.9305555555555554,-0.205,0.075
3.933333333333333,-0.195,0.105
3.936111111111111,-0.2,0.13
3.938888888888889,-0.215,0.12
3.941666666666667,-0.235,0.105
3.9444444444444446,-0.235,0.11
3.9472222222222224,-0.225,0.1
3.95,-0.17,0.115
3.952777777777778,-0.085,0.11
3.9555555555555557,0.015,0.115
3.9583333333333335,0.115,0.13
3.9611111111111112,0.205,0.115
3.963888888888889,0.295,0.1
3.966666666666667,0.405,0.115
3.9694444444444446,0.535,0.135
3.9722222222222223,0.685,0.115
3.975,0.825,0.115
3.977777777777778,0.95,0.125
3.9805555555555556,1.05,0.135
3.9833333333333334,1.115,0.145
3.986111111111111,1.11,0.15
3.988888888888889,0.995,0.16
3.9916666666666667,0.755,0.155
3.9944444444444445,0.325,0.14
3.9972222222222222,-0.135,0.145
4.0,-0.42,0.165
4.002777777777778,-0.54,0.19
4.0055555555555555,-0.545,0.175
4.008333333333334,-0.52,0.165
4.011111111111111,-0.46,0.165
4.013888888888889,-0.41,0.165
4.016666666666667,-0.37,0.145
4.019444444444445,-0.365,0.14
4.022222222222222,-0.34,0.16
4.025,-0.35,0.165
4.027777777777778,-0.35,0.14
4.030555555555556,-0.375,0.13
4.033333333333333,-0.38,0.145
4.036111111111111,-0.38,0.155
4.038888888888889,-0.355,0.13
4.041666666666667,-0.33,0.105
4.044444444444444,-0.34,0.12
4.0472222222222225,-0.345,0.125
4.05,-0.325,0.12
4.052777777777778,-0.3,0.115
4.055555555555555,-0.275,0.125
4.058333333333334,-0.28,0.135
4.061111111111111,-0.29,0.115
4.063888888888889,-0.31,0.105
4.066666666666666,-0.31,0.12
4.069444444444445,-0.3,0.14
4.072222222222222,-0.295,0.14
4.075,-0.3,0.115
4.0777777777777775,-0.315,0.11
4.080555555555556,-0.34,0.12
4.083333333333333,-0.335,0.115
4.086111111111111,-0.305,0.12
4.088888888888889,-0.285,0.125
4.091666666666667,-0.28,0.13
4.094444444444444,-0.295,0.125
4.097222222222222,-0.3,0.12
4.1,-0.295,0.12
4.102777777777778,-0.285,0.14
4.105555555555555,-0.275,0.12
4.108333333333333,-0.285,0.11
4.111111111111111,-0.28,0.125
4.113888888888889,-0.285,0.115
4.116666666666666,-0.27,0.11
4.1194444444444445,-0.265,0.125
4.122222222222222,-0.27,0.125
4.125,-0.27,0.125
4.127777777777778,-0.27,0.1
4.1305555555555555,-0.26,0.1
4.133333333333334,-0.24,0.115
4.136111111111111,-0.255,0.14
4.138888888888889,-0.255,0.125
4.141666666666667,-0.255,0.1
4.144444444444445,-0.255,0.105
4.147222222222222,-0.265,0.105
4.15,-0.26,0.11
4.152777777777778,-0.25,0.105
4.155555555555556,-0.255,0.12
4.158333333333333,-0.255,0.13
4.161111111111111,-0.26,0.105
4.163888888888889,-0.27,0.1
4.166666666666667,-0.255,0.11
4.169444444444444,-0.26,0.13
4.1722222222222225,-0.275,0.115
4.175,-0.26,0.09
4.177777777777778,-0.25,0.085
4.180555555555555,-0.235,0.115
4.183333333333334,-0.225,0.12
4.186111111111111,-0.225,0.115
4.188888888888889,-0.23,0.095
4.191666666666666,-0.22,0.115
4.194444444444445,-0.215,0.095
4.197222222222222,-0.205,0.075
4.2,-0.195,0.085
4.2027777777777775,-0.2,0.12
4.205555555555556,-0.205,0.115
4.208333333333333,-0.22,0.105
4.211111111111111,-0.21,0.095
4.213888888888889,-0.22,0.11
4.216666666666667,-0.21,0.105
4.219444444444444,-0.205,0.1
4.222222222222222,-0.185,0.085
4.225,-0.195,0.11
4.227777777777778,-0.195,0.125
4.230555555555555,-0.195,0.105
4.233333333333333,-0.175,0.1
4.236111111111111,-0.15,0.12
4.238888888888889,-0.14,0.13
4.241666666666666,-0.145,0.09
4.2444444444444445,-0.16,0.07
4.247222222222222,-0.16,0.09
4.25,-0.145,0.1
4.252777777777778,-0.135,0.105
4.2555555555555555,-0.125,0.075
4.258333333333334,-0.125,0.09
4.261111111111111,-0.14,0.095
4.263888888888889,-0.13,0.08
4.266666666666667,-0.11,0.075
4.269444444444445,-0.105,0.1
4.272222222222222,-0.11,0.115
4.275,-0.13,0.1
4.277777777777778,-0.135,0.08
4.280555555555556,-0.14,0.095
4.283333333333333,-0.14,0.11
4.286111111111111,-0.14,0.115
4.288888888888889,-0.125,0.09
4.291666666666667,-0.125,0.085
4.294444444444444,-0.11,0.105
4.2972222222222225,-0.105,0.11
4.3,-0.125,0.095
4.302777777777778,-0.12,0.12
4.305555555555555,-0.11,0.125
4.308333333333334,-0.11,0.125
4.311111111111111,-0.13,0.085
4.313888888888889,-0.145,0.095
4.316666666666666,-0.145,0.13
4.319444444444445,-0.14,0.12
4.322222222222222,-0.14,0.11
4.325,-0.135,0.12
4.3277777777777775,-0.16,0.11
4.330555555555556,-0.165,0.105
4.333333333333333,-0.165,0.11
4.336111111111111,-0.155,0.11
4.338888888888889,-0.145,0.12
4.341666666666667,-0.155,0.13
4.344444444444444,-0.17,0.125
4.347222222222222,-0.175,0.11
4.35,-0.16,0.125
4.352777777777778,-0.155,0.135
4.355555555555555,-0.15,0.12
4.358333333333333,-0.165,0.09
4.361111111111111,-0.185,0.095
4.363888888888889,-0.19,0.125
4.366666666666666,-0.18,0.145
4.3694444444444445,-0.16,0.13
4.372222222222222,-0.16,0.13
4.375,-0.16,0.13
4.377777777777778,-0.17,0.125
4.3805555555555555,-0.19,0.11
4.383333333333334,-0.175,0.1
4.386111111111111,-0.18,0.13
4.388888888888889,-0.18,0.14
4.391666666666667,-0.165,0.12
4.394444444444445,-0.155,0.11
4.397222222222222,-0.145,0.12
4.4,-0.11,0.15
4.402777777777778,-0.07,0.15
4.405555555555556,-0.05,0.125
4.408333333333333,-0.025,0.12
4.411111111111111,-0.005,0.145
4.413888888888889,0.0,0.14
4.416666666666667,0.03,0.145
4.419444444444444,0.06,0.14
4.4222222222222225,0.075,0.145
4.425,0.085,0.14
4.427777777777778,0.075,0.105
4.430555555555555,0.09,0.09
4.433333333333334,0.135,0.095
4.436111111111111,0.155,0.11
4.438888888888889,0.145,0.06
4.441666666666666,0.09,0.045
4.444444444444445,-0.025,0.03
4.447222222222222,-0.24,0.02
4.45,-0.58,-0.005
4.4527777777777775,-0.965,-0.015
4.455555555555556,-1.34,-0.005
4.458333333333333,-1.695,0.015
4.461111111111111,-1.98,0.005
4.463888888888889,-2.125,-0.01
4.466666666666667,-2.135,0.015
4.469444444444444,-2.125,0.03
4.472222222222222,-2.09,0.03
4.475,-2.075,0.01
4.477777777777778,-2.015,0.0
4.480555555555555,-1.95,0.03
4.483333333333333,-1.85,0.07
4.486111111111111,-1.735,0.09
4.488888888888889,-1.645,0.09
4.491666666666666,-1.55,0.095
4.4944444444444445,-1.425,0.125
4.497222222222222,-1.29,0.135
4.5,-1.185,0.12
4.502777777777778,-1.105,0.115
4.5055555555555555,-1.035,0.135
4.508333333333334,-0.965,0.14
4.511111111111111,-0.9,0.125
4.513888888888889,-0.83,0.125
4.516666666666667,-0.765,0.14
4.519444444444445,-0.705,0.155
4.522222222222222,-0.66,0.13
4.525,-0.635,0.1
4.527777777777778,-0.575,0.12
4.530555555555556,-0.52,0.13
4.533333333333333,-0.46,0.13
4.536111111111111,-0.405,0.135
4.538888888888889,-0.35,0.12
4.541666666666667,-0.29,0.145
4.544444444444444,-0.215,0.14
4.5472222222222225,-0.16,0.125
4.55,-0.095,0.13
4.552777777777778,-0.025,0.155
4.555555555555555,0.02,0.18
4.558333333333334,0.075,0.17
4.561111111111111,0.12,0.14
4.563888888888889,0.135,0.15
4.566666666666666,0.18,0.175
4.569444444444445,0.2,0.19
4.572222222222222,0.22,0.155
4.575,0.25,0.15
4.5777777777777775,0.27,0.15
4.580555555555556,0.28,0.165
4.583333333333333,0.295,0.175
4.586111111111111,0.315,0.165
4.588888888888889,0.345,0.165
4.591666666666667,0.36,0.17
4.594444444444444,0.375,0.155
4.597222222222222,0.37,0.15
4.6,0.39,0.16
4.602777777777778,0.405,0.2
4.605555555555555,0.435,0.195
4.608333333333333,0.455,0.18
4.611111111111111,0.47,0.17
4.613888888888889,0.49,0.185
4.616666666666666,0.52,0.185
4.6194444444444445,0.545,0.185
4.622222222222222,0.555,0.16
4.625,0.585,0.165
4.627777777777778,0.6,0.18
4.6305555555555555,0.62,0.18
4.633333333333334,0.635,0.18
4.636111111111111,0.67,0.185
4.638888888888889,0.68,0.195
4.641666666666667,0.69,0.175
4.644444444444445,0.685,0.15
4.647222222222222,0.695,0.15
4.65,0.725,0.185
4.652777777777778,0.74,0.2
4.655555555555556,0.755,0.18
4.658333333333333,0.765,0.165
4.661111111111111,0.765,0.17
4.663888888888889,0.765,0.185
4.666666666666667,0.78,0.185
4.669444444444444,0.8,0.16
4.6722222222222225,0.815,0.165
4.675,0.79,0.175
4.677777777777778,0.79,0.175
4.680555555555555,0.765,0.16
4.683333333333334,0.765,0.16
4.686111111111111,0.78,0.19
4.688888888888889,0.78,0.185
4.691666666666666,0.78,0.16
4.694444444444445,0.745,0.135
4.697222222222222,0.715,0.15
4.7,0.71,0.17
4.7027777777777775,0.71,0.175
4.705555555555556,0.7,0.155
4.708333333333333,0.67,0.155
4.711111111111111,0.63,0.15
4.713888888888889,0.58,0.13
4.716666666666667,0.535,0.13
4.719444444444444,0.495,0.16
4.722222222222222,0.465,0.175
4.725,0.445,0.155
4.727777777777778,0.41,0.145
4.730555555555555,0.395,0.135
4.733333333333333,0.375,0.17
4.736111111111111,0.365,0.165
4.738888888888889,0.345,0.135
4.741666666666666,0.32,0.14
4.7444444444444445,0.28,0.16
4.747222222222222,0.245,0.16
4.75,0.215,0.145
4.752777777777778,0.195,0.155
4.7555555555555555,0.18,0.15
4.758333333333334,0.15,0.145
4.761111111111111,0.12,0.13
4.763888888888889,0.095,0.125
4.766666666666667,0.095,0.15
4.769444444444445,0.095,0.16
4.772222222222222,0.08,0.145
4.775,0.065,0.13
4.777777777777778,0.04,0.14
4.780555555555556,0.02,0.135
4.783333333333333,0.0,0.12
4.786111111111111,0.0,0.115
4.788888888888889,0.0,0.14
4.791666666666667,-0.02,0.145
4.794444444444444,-0.02,0.12
4.7972222222222225,-0.03,0.115
4.8,-0.035,0.135
4.802777777777778,-0.03,0.14
4.805555555555555,-0.03,0.125
4.808333333333334,-0.04,0.09
4.811111111111111,-0.07,0.12
4.813888888888889,-0.08,0.135
4.816666666666666,-0.065,0.12
4.819444444444445,-0.07,0.125
4.822222222222222,-0.055,0.135
4.825,-0.07,0.125
4.8277777777777775,-0.085,0.1
4.830555555555556,-0.09,0.085
4.833333333333333,-0.09,0.115
4.836111111111111,-0.06,0.135
4.838888888888889,-0.055,0.11
4.841666666666667,-0.065,0.1
4.844444444444444,-0.095,0.105
4.847222222222222,-0.105,0.11
4.85,-0.105,0.08
4.852777777777778,-0.09,0.095
4.855555555555555,-0.08,0.105
4.858333333333333,-0.075,0.105
4.861111111111111,-0.085,0.08
4.863888888888889,-0.1,0.08
4.866666666666666,-0.075,0.115
4.8694444444444445,-0.08,0.115
4.872222222222222,-0.08,0.09
4.875,-0.085,0.08
4.877777777777778,-0.11,0.1
4.8805555555555555,-0.12,0.105
4.883333333333334,-0.11,0.085
4.886111111111111,-0.095,0.1
4.888888888888889,-0.08,0.11
4.891666666666667,-0.09,0.105
4.894444444444445,-0.09,0.08
4.897222222222222,-0.105,0.08
4.9,-0.115,0.12
4.902777777777778,-0.1,0.12
4.905555555555556,-0.095,0.1
4.908333333333333,-0.11,0.095
4.911111111111111,-0.125,0.115
4.913888888888889,-0.145,0.095
4.916666666666667,-0.16,0.085
4.919444444444444,-0.155,0.11
4.9222222222222225,-0.15,0.13
4.925,-0.135,0.115
4.927777777777778,-0.125,0.08
4.930555555555555,-0.13,0.11
4.933333333333334,-0.11,0.125
4.936111111111111,-0.125,0.12
4.938888888888889,-0.12,0.1
4.941666666666666,-0.13,0.115
4.944444444444445,-0.145,0.115
4.947222222222222,-0.15,0.1
4.95,-0.145,0.1
4.9527777777777775,-0.14,0.13
4.955555555555556,-0.145,0.12
4.958333333333333,-0.15,0.09
4.961111111111111,-0.16,0.075
4.963888888888889,-0.17,0.095
4.966666666666667,-0.16,0.12
4.969444444444444,-0.155,0.115
4.972222222222222,-0.155,0.095
4.975,-0.155,0.11
4.977777777777778,-0.15,0.125
4.980555555555555,-0.16,0.1
4.983333333333333,-0.16,0.095
4.986111111111111,-0.16,0.125
4.988888888888889,-0.145,0.14
4.991666666666666,-0.15,0.115
4.9944444444444445,-0.155,0.075
4.997222222222222,-0.18,0.105
5.0,-0.175,0.12
5.002777777777778,-0.165,0.105
5.0055555555555555,-0.155,0.09
5.008333333333334,-0.145,0.105
5.011111111111111,-0.165,0.125
5.013888888888889,-0.18,0.115
5.016666666666667,-0.17,0.1
5.019444444444445,-0.16,0.12
5.022222222222222,-0.165,0.135
5.025,-0.165,0.135
5.027777777777778,-0.16,0.095
5.030555555555556,-0.155,0.095
5.033333333333333,-0.145,0.13
5.036111111111111,-0.135,0.15
5.038888888888889,-0.115,0.125
5.041666666666667,-0.105,0.125
5.044444444444444,-0.095,0.135
5.0472222222222225,-0.09,0.145
5.05,-0.085,0.11
5.052777777777778,-0.09,0.12
5.055555555555555,-0.095,0.135
5.058333333333334,-0.12,0.125
5.061111111111111,-0.15,0.115
5.063888888888889,-0.17,0.1
5.066666666666666,-0.165,0.125
5.069444444444445,-0.17,0.14
5.072222222222222,-0.17,0.11
5.075,-0.17,0.095
5.0777777777777775,-0.18,0.1
5.080555555555556,-0.18,0.115
5.083333333333333,-0.17,0.1
5.086111111111111,-0.175,0.1
5.088888888888889,-0.18,0.125
5.091666666666667,-0.185,0.125
5.094444444444444,-0.19,0.1
5.097222222222222,-0.2,0.095
5.1,-0.175,0.115
5.102777777777778,-0.175,0.14
5.105555555555555,-0.165,0.12
5.108333333333333,-0.14,0.09
5.111111111111111,-0.14,0.105
5.113888888888889,-0.155,0.115
5.116666666666666,-0.155,0.11
5.1194444444444445,-0.155,0.105
5.122222222222222,-0.16,0.105
5.125,-0.175,0.125
5.127777777777778,-0.19,0.105
5.1305555555555555,-0.205,0.095
5.133333333333334,-0.205,0.095
5.136111111111111,-0.2,0.13
5.138888888888889,-0.19,0.12
5.141666666666667,-0.2,0.09
5.144444444444445,-0.21,0.08
5.147222222222222,-0.22,0.1
5.15,-0.21,0.12
5.152777777777778,-0.21,0.105
5.155555555555556,-0.205,0.11
5.158333333333333,-0.205,0.125
5.161111111111111,-0.2,0.12
5.163888888888889,-0.2,0.09
5.166666666666667,-0.185,0.09
5.169444444444444,-0.185,0.12
5.1722222222222225,-0.185,0.135
5.175,-0.19,0.12
5.177777777777778,-0.205,0.1
5.180555555555555,-0.21,0.105
5.183333333333334,-0.215,0.125
5.186111111111111,-0.22,0.12
5.188888888888889,-0.25,0.08
5.191666666666666,-0.26,0.08
5.194444444444445,-0.235,0.095
5.197222222222222,-0.195,0.095
5.2,-0.135,0.095
5.2027777777777775,-0.03,0.1
5.205555555555556,0.095,0.11
5.208333333333333,0.195,0.115
5.211111111111111,0.285,0.1
5.213888888888889,0.36,0.09
5.216666666666667,0.46,0.125
5.219444444444444,0.58,0.145
5.222222222222222,0.695,0.135
5.225,0.81,0.115
5.227777777777778,0.895,0.13
5.230555555555555,0.945,0.145
5.233333333333333,0.94,0.135
5.236111111111111,0.845,0.13
5.238888888888889,0.725,0.12
5.241666666666666,0.545,0.145
5.2444444444444445,0.285,0.16
5.247222222222222,-0.025,0.14
5.25,-0.27,0.155
5.252777777777778,-0.405,0.19
5.2555555555555555,-0.47,0.185
5.258333333333334,-0.49,0.16
5.261111111111111,-0.465,0.135
5.263888888888889,-0.425,0.165
5.266666666666667,-0.385,0.175
5.269444444444445,-0.35,0.16
5.272222222222222,-0.34,0.145
5.275,-0.315,0.15
5.277777777777778,-0.315,0.145
5.280555555555556,-0.33,0.125
5.283333333333333,-0.35,0.115
5.286111111111111,-0.36,0.13
5.288888888888889,-0.375,0.13
5.291666666666667,-0.38,0.115
5.294444444444444,-0.38,0.085
5.2972222222222225,-0.38,0.07
5.3,-0.36,0.105
5.302777777777778,-0.345,0.1
5.305555555555555,-0.32,0.08
5.308333333333334,-0.31,0.075
5.311111111111111,-0.32,0.09
5.313888888888889,-0.335,0.1
5.316666666666666,-0.335,0.075
5.319444444444445,-0.33,0.09
5.322222222222222,-0.33,0.105
5.325,-0.325,0.105
5.3277777777777775,-0.345,0.07
5.330555555555556,-0.335,0.055
5.333333333333333,-0.335,0.07
5.336111111111111,-0.34,0.115
5.338888888888889,-0.32,0.085
5.341666666666667,-0.325,0.055
5.344444444444444,-0.325,0.05
5.347222222222222,-0.325,0.08
5.35,-0.31,0.085
5.352777777777778,-0.305,0.07
5.355555555555555,-0.31,0.07
5.358333333333333,-0.315,0.085
5.361111111111111,-0.315,0.085
5.363888888888889,-0.305,0.07
5.366666666666666,-0.3,0.06
5.3694444444444445,-0.295,0.105
5.372222222222222,-0.285,0.11
5.375,-0.295,0.075
5.377777777777778,-0.3,0.055
5.3805555555555555,-0.31,0.075
5.383333333333334,-0.3,0.1
5.386111111111111,-0.275,0.095
5.388888888888889,-0.275,0.08
5.391666666666667,-0.28,0.085
5.394444444444445,-0.28,0.095
5.397222222222222,-0.29,0.095
5.4,-0.295,0.075
5.402777777777778,-0.28,0.1
5.405555555555556,-0.29,0.11
5.408333333333333,-0.285,0.105
5.411111111111111,-0.295,0.07
5.413888888888889,-0.3,0.065
5.416666666666667,-0.285,0.095
5.419444444444444,-0.26,0.115
5.4222222222222225,-0.245,0.095
5.425,-0.225,0.07
5.427777777777778,-0.24,0.07
5.430555555555555,-0.265,0.1
5.433333333333334,-0.27,0.095
5.436111111111111,-0.26,0.085
5.438888888888889,-0.265,0.08
5.441666666666666,-0.235,0.105
5.444444444444445,-0.245,0.09
5.447222222222222,-0.25,0.07
5.45,-0.24,0.065
5.4527777777777775,-0.24,0.1
5.455555555555556,-0.225,0.12
5.458333333333333,-0.22,0.095
5.461111111111111,-0.235,0.08
5.463888888888889,-0.235,0.08
5.466666666666667,-0.225,0.105
5.469444444444444,-0.22,0.12
5.472222222222222,-0.235,0.085
5.475,-0.25,0.08
5.477777777777778,-0.24,0.09
5.480555555555555,-0.23,0.11
5.483333333333333,-0.185,0.09
5.486111111111111,-0.175,0.085
5.488888888888889,-0.16,0.1
5.491666666666666,-0.17,0.115
5.4944444444444445,-0.19,0.095
5.497222222222222,-0.205,0.07
5.5,-0.2,0.085
5.502777777777778,-0.215,0.1
5.5055555555555555,-0.21,0.12
5.508333333333334,-0.19,0.095
5.511111111111111,-0.2,0.07
5.513888888888889,-0.205,0.09
5.516666666666667,-0.18,0.12
5.519444444444445,-0.175,0.105
5.522222222222222,-0.175,0.085
5.525,-0.18,0.08
5.527777777777778,-0.19,0.09
5.530555555555556,-0.205,0.09
5.533333333333333,-0.19,0.08
5.536111111111111,-0.185,0.095
5.538888888888889,-0.16,0.115
5.541666666666667,-0.175,0.115
5.544444444444444,-0.2,0.1
5.5472222222222225,-0.22,0.085
5.55,-0.22,0.11
5.552777777777778,-0.2,0.13
5.555555555555555,-0.19,0.125
5.558333333333334,-0.17,0.09
5.561111111111111,-0.175,0.09
5.563888888888889,-0.185,0.115
5.566666666666666,-0.18,0.13
5.569444444444445,-0.18,0.115
5.572222222222222,-0.17,0.095
5.575,-0.17,0.11
5.5777777777777775,-0.17,0.12
5.580555555555556,-0.225,0.11
5.583333333333333,-0.205,0.1
5.586111111111111,-0.215,0.125
5.588888888888889,-0.225,0.13
5.591666666666667,-0.225,0.135
5.594444444444444,-0.22,0.11
5.597222222222222,-0.215,0.095
5.6,-0.195,0.125
5.602777777777778,-0.195,0.145
5.605555555555555,-0.195,0.12
5.608333333333333,-0.215,0.115
5.611111111111111,-0.235,0.115
5.613888888888889,-0.22,0.14
5.616666666666666,-0.21,0.11
5.6194444444444445,-0.18,0.11
5.622222222222222,-0.19,0.125
5.625,-0.18,0.125
5.627777777777778,-0.195,0.11
5.6305555555555555,-0.215,0.1
5.633333333333334,-0.21,0.12
5.636111111111111,-0.21,0.135
5.638888888888889,-0.21,0.13
5.641666666666667,-0.225,0.105
5.644444444444445,-0.24,0.08
5.647222222222222,-0.26,0.115
5.65,-0.25,0.11
5.652777777777778,-0.24,0.1
5.655555555555556,-0.23,0.09
5.658333333333333,-0.22,0.105
5.661111111111111,-0.25,0.105
5.663888888888889,-0.27,0.08
5.666666666666667,-0.265,0.075
5.669444444444444,-0.275,0.1
5.6722222222222225,-0.26,0.095
5.675,-0.255,0.09
5.677777777777778,-0.25,0.055
5.680555555555555,-0.25,0.07
5.683333333333334,-0.235,0.1
5.686111111111111,-0.22,0.11
5.688888888888889,-0.21,0.075
5.691666666666666,-0.21,0.065
5.694444444444445,-0.205,0.07
5.697222222222222,-0.21,0.075
5.7,-0.19,0.065
5.7027777777777775,-0.175,0.055
5.705555555555556,-0.155,0.05
5.708333333333333,-0.08,0.045
5.711111111111111,0.015,0.03
5.713888888888889,0.085,0.0
5.716666666666667,0.12,0.01
5.719444444444444,0.115,0.04
5.722222222222222,0.1,0.025
5.725,0.09,0.0
5.727777777777778,0.02,-0.005
5.730555555555555,-0.11,0.01
5.733333333333333,-0.395,0.015
5.736111111111111,-0.79,-0.005
5.738888888888889,-1.175,-0.005
5.741666666666666,-1.45,0.015
5.7444444444444445,-1.645,0.015
5.747222222222222,-1.77,0.0
5.75,-1.845,0.02
5.752777777777778,-1.905,0.045
5.7555555555555555,-1.915,0.045
5.758333333333334,-1.89,0.025
5.761111111111111,-1.875,0.02
5.763888888888889,-1.86,0.055
5.766666666666667,-1.775,0.07
5.769444444444445,-1.61,0.08
5.772222222222222,-1.445,0.09
5.775,-1.305,0.1
5.777777777777778,-1.21,0.105
5.780555555555556,-1.15,0.095
5.783333333333333,-1.05,0.11
5.786111111111111,-0.96,0.13
5.788888888888889,-0.91,0.125
5.791666666666667,-0.885,0.115
5.794444444444444,-0.86,0.095
5.7972222222222225,-0.825,0.125
5.8,-0.79,0.115
5.802777777777778,-0.725,0.12
5.805555555555555,-0.67,0.105
5.808333333333334,-0.59,0.11
5.811111111111111,-0.575,0.105
5.813888888888889,-0.54,0.09
5.816666666666666,-0.495,0.085
5.819444444444445,-0.435,0.11
5.822222222222222,-0.36,0.13
5.825,-0.28,0.11
5.8277777777777775,-0.22,0.095
5.830555555555556,-0.16,0.11
5.833333333333333,-0.1,0.135
5.836111111111111,-0.045,0.12
5.838888888888889,0.0,0.115
5.841666666666667,0.035,0.135
5.844444444444444,0.055,0.135
5.847222222222222,0.06,0.1
5.85,0.08,0.115
5.852777777777778,0.095,0.14
5.855555555555555,0.105,0.135
5.858333333333333,0.105,0.105
5.861111111111111,0.115,0.095
5.863888888888889,0.165,0.13
5.866666666666666,0.195,0.14
5.8694444444444445,0.215,0.115
5.872222222222222,0.23,0.12
5.875,0.23,0.135
5.877777777777778,0.225,0.12
5.8805555555555555,0.225,0.095
5.883333333333334,0.25,0.11
5.886111111111111,0.28,0.15
5.888888888888889,0.31,0.145
5.891666666666667,0.33,0.105
5.894444444444445,0.35,0.11
5.897222222222222,0.345,0.12
5.9,0.37,0.125
5.902777777777778,0.4,0.12
5.905555555555556,0.415,0.125
5.908333333333333,0.435,0.14
5.911111111111111,0.425,0.11
5.913888888888889,0.425,0.105
5.916666666666667,0.435,0.12
5.919444444444444,0.45,0.135
5.9222222222222225,0.465,0.115
5.925,0.495,0.1
5.927777777777778,0.52,0.12
5.930555555555555,0.525,0.105
5.933333333333334,0.525,0.11
5.936111111111111,0.545,0.125
5.938888888888889,0.56,0.115
5.941666666666666,0.565,0.105
5.944444444444445,0.555,0.09
5.947222222222222,0.525,0.105
5.95,0.53,0.125
5.9527777777777775,0.53,0.12
5.955555555555556,0.52,0.1
5.958333333333333,0.51,0.095
5.961111111111111,0.48,0.105
5.963888888888889,0.455,0.09
5.966666666666667,0.46,0.085
5.969444444444444,0.455,0.13
5.972222222222222,0.44,0.125
5.975,0.435,0.1
5.977777777777778,0.395,0.09
5.980555555555555,0.355,0.105
5.983333333333333,0.345,0.11
5.986111111111111,0.34,0.09
5.988888888888889,0.335,0.1
5.991666666666666,0.305,0.12
5.9944444444444445,0.26,0.11
5.997222222222222,0.205,0.08
6.0,0.155,0.105
6.002777777777778,0.13,0.105
6.0055555555555555,0.095,0.105
6.008333333333334,0.095,0.08
6.011111111111111,0.06,0.085
6.013888888888889,0.04,0.095
6.016666666666667,0.01,0.095
6.019444444444445,0.01,0.1
6.022222222222222,-0.015,0.11
6.025,-0.04,0.105
6.027777777777778,-0.06,0.09
6.030555555555556,-0.075,0.085
6.033333333333333,-0.065,0.1
6.036111111111111,-0.06,0.12
6.038888888888889,-0.06,0.11
6.041666666666667,-0.075,0.09
6.044444444444444,-0.1,0.09
6.0472222222222225,-0.095,0.095
6.05,-0.1,0.095
6.052777777777778,-0.11,0.1
6.055555555555555,-0.12,0.11
6.058333333333334,-0.145,0.115
6.061111111111111,-0.155,0.095
6.063888888888889,-0.175,0.09
6.066666666666666,-0.17,0.1
6.069444444444445,-0.15,0.12
6.072222222222222,-0.155,0.1
6.075,-0.16,0.09
6.0777777777777775,-0.185,0.095
6.080555555555556,-0.215,0.095
6.083333333333333,-0.22,0.1
6.086111111111111,-0.185,0.105
6.088888888888889,-0.18,0.11
6.091666666666667,-0.165,0.09
6.094444444444444,-0.18,0.085
6.097222222222222,-0.18,0.09
6.1,-0.175,0.125
6.102777777777778,-0.16,0.13
6.105555555555555,-0.135,0.11
6.108333333333333,-0.145,0.11
6.111111111111111,-0.145,0.105
6.113888888888889,-0.15,0.1
6.116666666666666,-0.13,0.095
6.1194444444444445,-0.12,0.12
6.122222222222222,-0.135,0.125
6.125,-0.14,0.11
6.127777777777778,-0.145,0.085
6.1305555555555555,-0.145,0.095
6.133333333333334,-0.145,0.125
6.136111111111111,-0.14,0.115
6.138888888888889,-0.16,0.1
6.141666666666667,-0.15,0.105
6.144444444444445,-0.155,0.12
6.147222222222222,-0.16,0.085
6.15,-0.155,0.1
6.152777777777778,-0.18,0.12
6.155555555555556,-0.18,0.125
6.158333333333333,-0.165,0.1
6.161111111111111,-0.17,0.08
6.163888888888889,-0.18,0.1
6.166666666666667,-0.2,0.115
6.169444444444444,-0.195,0.125
6.1722222222222225,-0.185,0.11
6.175,-0.185,0.1
6.177777777777778,-0.195,0.105
6.180555555555555,-0.225,0.085
6.183333333333334,-0.215,0.085
6.186111111111111,-0.195,0.105
6.188888888888889,-0.16,0.135
6.191666666666666,-0.15,0.105
6.194444444444445,-0.175,0.09
6.197222222222222,-0.19,0.095
6.2,-0.205,0.095
6.2027777777777775,-0.195,0.115
6.205555555555556,-0.18,0.095
6.208333333333333,-0.175,0.09
6.211111111111111,-0.17,0.11
6.213888888888889,-0.19,0.11
6.216666666666667,-0.16,0.105
6.219444444444444,-0.145,0.115
6.222222222222222,-0.135,0.125
6.225,-0.14,0.12
6.227777777777778,-0.145,0.085
6.230555555555555,-0.17,0.095
6.233333333333333,-0.16,0.135
6.236111111111111,-0.135,0.15
6.238888888888889,-0.125,0.125
6.241666666666666,-0.165,0.11
6.2444444444444445,-0.2,0.105
6.247222222222222,-0.225,0.1
6.25,-0.215,0.11
6.252777777777778,-0.19,0.11
6.2555555555555555,-0.17,0.12
6.258333333333334,-0.175,0.12
6.261111111111111,-0.185,0.1
6.263888888888889,-0.185,0.11
6.266666666666667,-0.155,0.11
6.269444444444445,-0.15,0.13
6.272222222222222,-0.135,0.115
6.275,-0.13,0.09
6.277777777777778,-0.125,0.115
6.280555555555556,-0.135,0.115
6.283333333333333,-0.12,0.135
6.286111111111111,-0.1,0.12
6.288888888888889,-0.09,0.13
6.291666666666667,-0.08,0.125
6.294444444444444,-0.08,0.11
6.2972222222222225,-0.095,0.095
6.3,-0.09,0.115
6.302777777777778,-0.085,0.13
6.305555555555555,-0.11,0.125
6.308333333333334,-0.12,0.105
6.311111111111111,-0.13,0.095
6.313888888888889,-0.155,0.1
6.316666666666666,-0.135,0.1
6.319444444444445,-0.135,0.085
6.322222222222222,-0.125,0.105
6.325,-0.14,0.105
6.3277777777777775,-0.155,0.095
6.330555555555556,-0.175,0.075
6.333333333333333,-0.15,0.075
6.336111111111111,-0.165,0.11
6.338888888888889,-0.165,0.105
6.341666666666667,-0.16,0.07
6.344444444444444,-0.185,0.055
6.347222222222222,-0.215,0.07
6.35,-0.21,0.095
6.352777777777778,-0.175,0.095
6.355555555555555,-0.145,0.08
6.358333333333333,-0.15,0.09
6.361111111111111,-0.17,0.09
6.363888888888889,-0.18,0.085
6.366666666666666,-0.15,0.065
6.3694444444444445,-0.15,0.09
6.372222222222222,-0.135,0.11
6.375,-0.155,0.095
6.377777777777778,-0.17,0.07
6.3805555555555555,-0.195,0.07
6.383333333333334,-0.185,0.095
6.386111111111111,-0.185,0.09
6.388888888888889,-0.17,0.06
6.391666666666667,-0.17,0.07
6.394444444444445,-0.18,0.075
6.397222222222222,-0.185,0.09
6.4,-0.185,0.085
6.402777777777778,-0.195,0.08
6.405555555555556,-0.21,0.1
6.408333333333333,-0.21,0.1
6.411111111111111,-0.2,0.075
6.413888888888889,-0.175,0.06
6.416666666666667,-0.165,0.08
6.419444444444444,-0.165,0.11
6.4222222222222225,-0.185,0.095
6.425,-0.21,0.075
6.427777777777778,-0.24,0.075
6.430555555555555,-0.245,0.08
6.433333333333334,-0.245,0.085
6.436111111111111,-0.24,0.075
6.438888888888889,-0.215,0.075
6.441666666666666,-0.185,0.08
6.444444444444445,-0.125,0.09
6.447222222222222,-0.05,0.07
6.45,0.035,0.07
6.4527777777777775,0.145,0.105
6.455555555555556,0.235,0.1
6.458333333333333,0.325,0.075
6.461111111111111,0.44,0.065
6.463888888888889,0.555,0.09
6.466666666666667,0.695,0.13
6.469444444444444,0.83,0.135
6.472222222222222,0.965,0.115
6.475,1.095,0.12
6.477777777777778,1.155,0.125
6.480555555555555,1.145,0.11
6.483333333333333,1.065,0.09
6.486111111111111,0.92,0.11
6.488888888888889,0.66,0.14
6.491666666666666,0.215,0.14
6.4944444444444445,-0.185,0.12
6.497222222222222,-0.405,0.135
6.5,-0.48,0.155
6.502777777777778,-0.49,0.15
6.5055555555555555,-0.46,0.13
6.508333333333334,-0.42,0.12
6.511111111111111,-0.37,0.13
6.513888888888889,-0.35,0.13
6.516666666666667,-0.34,0.13
6.519444444444445,-0.34,0.12
6.522222222222222,-0.34,0.12
6.525,-0.355,0.13
6.527777777777778,-0.385,0.1
6.530555555555556,-0.39,0.085
6.533333333333333,-0.375,0.095
6.536111111111111,-0.365,0.12
6.538888888888889,-0.37,0.12
6.541666666666667,-0.36,0.09
6.544444444444444,-0.355,0.085
6.5472222222222225,-0.37,0.08
6.55,-0.335,0.095
6.552777777777778,-0.315,0.09
6.555555555555555,-0.305,0.07
6.558333333333334,-0.295,0.08
6.561111111111111,-0.31,0.1
6.563888888888889,-0.32,0.085
6.566666666666666,-0.305,0.09
6.569444444444445,-0.29,0.105
6.572222222222222,-0.275,0.1
6.575,-0.275,0.085
6.5777777777777775,-0.265,0.06
6.580555555555556,-0.275,0.065
6.583333333333333,-0.285,0.09
6.586111111111111,-0.28,0.11
6.588888888888889,-0.275,0.09
6.591666666666667,-0.265,0.085
6.594444444444444,-0.27,0.085
6.597222222222222,-0.265,0.095
6.6,-0.25,0.08
6.602777777777778,-0.255,0.085
6.605555555555555,-0.265,0.1
6.608333333333333,-0.275,0.105
6.611111111111111,-0.3,0.095
6.613888888888889,-0.31,0.07
6.616666666666666,-0.3,0.095
6.6194444444444445,-0.27,0.115
6.622222222222222,-0.255,0.1
6.625,-0.26,0.08
6.627777777777778,-0.265,0.065
6.6305555555555555,-0.275,0.095
6.633333333333334,-0.245,0.11
6.636111111111111,-0.235,0.105
6.638888888888889,-0.26,0.1
6.641666666666667,-0.29,0.11
6.644444444444445,-0.305,0.11
6.647222222222222,-0.315,0.09
6.65,-0.305,0.08
6.652777777777778,-0.285,0.11
6.655555555555556,-0.265,0.125
6.658333333333333,-0.245,0.125
6.661111111111111,-0.24,0.105
6.663888888888889,-0.235,0.1
6.666666666666667,-0.235,0.115
6.669444444444444,-0.22,0.135
6.6722222222222225,-0.2,0.105
6.675,-0.21,0.09
6.677777777777778,-0.225,0.105
6.680555555555555,-0.255,0.12
6.683333333333334,-0.235,0.11
6.686111111111111,-0.22,0.105
6.688888888888889,-0.205,0.125
6.691666666666666,-0.2,0.12
6.694444444444445,-0.2,0.1
6.697222222222222,-0.21,0.095
6.7,-0.235,0.11
6.7027777777777775,-0.25,0.13
6.705555555555556,-0.25,0.125
6.708333333333333,-0.235,0.115
6.711111111111111,-0.215,0.11
6.713888888888889,-0.21,0.11
6.716666666666667,-0.2,0.105
6.719444444444444,-0.195,0.115
6.722222222222222,-0.18,0.115
6.725,-0.185,0.125
6.727777777777778,-0.18,0.12
6.730555555555555,-0.185,0.095
6.733333333333333,-0.155,0.125
6.736111111111111,-0.14,0.14
6.738888888888889,-0.12,0.125
6.741666666666666,-0.145,0.095
6.7444444444444445,-0.185,0.095
6.747222222222222,-0.235,0.115
6.75,-0.225,0.14
6.752777777777778,-0.195,0.125
6.7555555555555555,-0.155,0.125
6.758333333333334,-0.145,0.135
6.761111111111111,-0.125,0.13
6.763888888888889,-0.125,0.11
6.766666666666667,-0.12,0.105
6.769444444444445,-0.12,0.145
6.772222222222222,-0.125,0.14
6.775,-0.135,0.115
6.777777777777778,-0.135,0.12
6.780555555555556,-0.15,0.12
6.783333333333333,-0.135,0.115
6.786111111111111,-0.125,0.105
6.788888888888889,-0.12,0.12
6.791666666666667,-0.105,0.13
6.794444444444444,-0.1,0.11
6.7972222222222225,-0.105,0.095
6.8,-0.12,0.11
6.802777777777778,-0.14,0.12
6.805555555555555,-0.135,0.1
6.808333333333334,-0.15,0.075
6.811111111111111,-0.15,0.085
6.813888888888889,-0.165,0.105
6.816666666666666,-0.16,0.105
6.819444444444445,-0.15,0.08
6.822222222222222,-0.165,0.1
6.825,-0.185,0.11
6.8277777777777775,-0.185,0.07
6.830555555555556,-0.195,0.07
6.833333333333333,-0.19,0.095
6.836111111111111,-0.19,0.11
6.838888888888889,-0.2,0.095
6.841666666666667,-0.21,0.075
6.844444444444444,-0.23,0.075
6.847222222222222,-0.23,0.09
6.85,-0.205,0.08
6.852777777777778,-0.18,0.06
6.855555555555555,-0.185,0.07
6.858333333333333,-0.175,0.09
6.861111111111111,-0.175,0.085
6.863888888888889,-0.19,0.06
6.866666666666666,-0.19,0.075
6.8694444444444445,-0.23,0.105
6.872222222222222,-0.275,0.085
6.875,-0.295,0.065
6.877777777777778,-0.29,0.06
6.8805555555555555,-0.275,0.075
6.883333333333334,-0.25,0.095
6.886111111111111,-0.215,0.075
6.888888888888889,-0.18,0.08
6.891666666666667,-0.185,0.085
6.894444444444445,-0.17,0.065
6.897222222222222,-0.17,0.06
6.9,-0.13,0.075
6.902777777777778,-0.1,0.095
6.905555555555556,-0.065,0.09
6.908333333333333,-0.045,0.065
6.911111111111111,-0.055,0.07
6.913888888888889,-0.045,0.07
6.916666666666667,-0.03,0.06
6.919444444444444,-0.025,0.04
6.9222222222222225,0.0,0.04
6.925,0.02,0.045
6.927777777777778,0.01,0.02
6.930555555555555,-0.03,0.0
6.933333333333334,-0.085,0.0
6.936111111111111,-0.195,0.005
6.938888888888889,-0.445,-0.03
6.941666666666666,-0.835,-0.06
6.944444444444445,-1.26,-0.055
6.947222222222222,-1.635,-0.035
6.95,-1.945,-0.04
6.9527777777777775,-2.13,-0.045
6.955555555555556,-2.175,-0.03
6.958333333333333,-2.175,-0.015
6.961111111111111,-2.155,-0.045
6.963888888888889,-2.13,-0.055
6.966666666666667,-2.07,-0.01
6.969444444444444,-1.985,0.025
6.972222222222222,-1.88,0.02
6.975,-1.77,0.015
6.977777777777778,-1.66,0.045
6.980555555555555,-1.545,0.065
6.983333333333333,-1.395,0.065
6.986111111111111,-1.21,0.07
6.988888888888889,-1.085,0.08
6.991666666666666,-1.005,0.105
6.9944444444444445,-0.95,0.085
6.997222222222222,-0.9,0.07
7.0,-0.845,0.1
7.002777777777778,-0.775,0.115
7.0055555555555555,-0.71,0.095
7.008333333333334,-0.67,0.08
7.011111111111111,-0.635,0.08
7.013888888888889,-0.59,0.105
7.016666666666667,-0.52,0.095
7.019444444444445,-0.455,0.085
7.022222222222222,-0.4,0.1
7.025,-0.345,0.115
7.027777777777778,-0.25,0.09
7.030555555555556,-0.165,0.07
7.033333333333333,-0.09,0.11
7.036111111111111,-0.03,0.145
7.038888888888889,0.04,0.13
7.041666666666667,0.095,0.115
7.044444444444444,0.14,0.125
7.0472222222222225,0.16,0.135
7.05,0.175,0.13
7.052777777777778,0.215,0.13
7.055555555555555,0.24,0.14
7.058333333333334,0.275,0.155
7.061111111111111,0.275,0.135
7.063888888888889,0.285,0.135
7.066666666666666,0.315,0.165
7.069444444444445,0.32,0.18
7.072222222222222,0.34,0.14
7.075,0.355,0.14
7.0777777777777775,0.38,0.15
7.080555555555556,0.385,0.145
7.083333333333333,0.4,0.145
7.086111111111111,0.425,0.15
7.088888888888889,0.465,0.17
7.091666666666667,0.495,0.165
7.094444444444444,0.505,0.13
7.097222222222222,0.515,0.14
7.1,0.555,0.17
7.102777777777778,0.6,0.185
7.105555555555555,0.625,0.155
7.108333333333333,0.63,0.165
7.111111111111111,0.63,0.165
7.113888888888889,0.645,0.15
7.116666666666666,0.655,0.14
7.1194444444444445,0.69,0.165
7.122222222222222,0.71,0.17
7.125,0.72,0.165
7.127777777777778,0.72,0.14
7.1305555555555555,0.715,0.145
7.133333333333334,0.72,0.18
7.136111111111111,0.735,0.18
7.138888888888889,0.735,0.165
7.141666666666667,0.755,0.155
7.144444444444445,0.74,0.17
7.147222222222222,0.73,0.16
7.15,0.74,0.16
7.152777777777778,0.76,0.175
7.155555555555556,0.77,0.195
7.158333333333333,0.75,0.175
7.161111111111111,0.73,0.145
7.163888888888889,0.71,0.155
7.166666666666667,0.7,0.175
7.169444444444444,0.69,0.19
7.1722222222222225,0.68,0.165
7.175,0.66,0.17
7.177777777777778,0.635,0.17
7.180555555555555,0.6,0.155
7.183333333333334,0.575,0.15
7.186111111111111,0.545,0.165
7.188888888888889,0.495,0.17
7.191666666666666,0.455,0.165
7.194444444444445,0.44,0.14
7.197222222222222,0.42,0.155
7.2,0.395,0.175
7.2027777777777775,0.38,0.16
7.205555555555556,0.365,0.14
7.208333333333333,0.355,0.14
7.211111111111111,0.315,0.16
7.213888888888889,0.28,0.145
7.216666666666667,0.25,0.135
7.219444444444444,0.24,0.155
7.222222222222222,0.23,0.17
7.225,0.215,0.145
7.227777777777778,0.195,0.115
7.230555555555555,0.18,0.125
7.233333333333333,0.16,0.15
7.236111111111111,0.15,0.165
7.238888888888889,0.125,0.14
7.241666666666666,0.115,0.14
7.2444444444444445,0.09,0.15
7.247222222222222,0.055,0.135
7.25,0.04,0.125
7.252777777777778,0.01,0.125
7.2555555555555555,-0.015,0.145
7.258333333333334,-0.035,0.145
7.261111111111111,-0.04,0.11
7.263888888888889,-0.045,0.125
7.266666666666667,-0.045,0.15
7.269444444444445,-0.03,0.145
7.272222222222222,-0.04,0.115
7.275,-0.03,0.12
7.277777777777778,-0.04,0.13
7.280555555555556,-0.05,0.135
7.283333333333333,-0.05,0.115
7.286111111111111,-0.055,0.135
7.288888888888889,-0.065,0.15
7.291666666666667,-0.065,0.145
7.294444444444444,-0.065,0.11
7.2972222222222225,-0.07,0.1
7.3,-0.08,0.125
7.302777777777778,-0.105,0.15
7.305555555555555,-0.105,0.13
7.308333333333334,-0.105,0.1
7.311111111111111,-0.115,0.115
7.313888888888889,-0.105,0.115
7.316666666666666,-0.085,0.105
7.319444444444445,-0.085,0.1
7.322222222222222,-0.095,0.12
7.325,-0.09,0.125
7.3277777777777775,-0.11,0.1
7.330555555555556,-0.12,0.085
7.333333333333333,-0.12,0.11
7.336111111111111,-0.12,0.125
7.338888888888889,-0.105,0.11
7.341666666666667,-0.11,0.09
7.344444444444444,-0.115,0.1
7.347222222222222,-0.135,0.105
7.35,-0.14,0.11
7.352777777777778,-0.125,0.115
7.355555555555555,-0.12,0.11
7.358333333333333,-0.11,0.105
7.361111111111111,-0.13,0.085
7.363888888888889,-0.14,0.065
7.366666666666666,-0.155,0.095
7.3694444444444445,-0.155,0.12
7.372222222222222,-0.155,0.115
7.375,-0.16,0.08
7.377777777777778,-0.175,0.065
7.3805555555555555,-0.195,0.095
7.383333333333334,-0.18,0.105
7.386111111111111,-0.17,0.085
7.388888888888889,-0.155,0.075
7.391666666666667,-0.14,0.095
7.394444444444445,-0.13,0.095
7.397222222222222,-0.14,0.08
7.4,-0.16,0.07
7.402777777777778,-0.175,0.09
7.405555555555556,-0.19,0.105
7.408333333333333,-0.21,0.095
7.411111111111111,-0.2,0.055
7.413888888888889,-0.18,0.07
7.416666666666667,-0.17,0.12
7.419444444444444,-0.18,0.11
7.4222222222222225,-0.17,0.095
7.425,-0.185,0.085
7.427777777777778,-0.18,0.1
7.430555555555555,-0.195,0.1
7.433333333333334,-0.185,0.075
7.436111111111111,-0.18,0.085
7.438888888888889,-0.175,0.1
7.441666666666666,-0.185,0.105
7.444444444444445,-0.2,0.075
7.447222222222222,-0.225,0.075
7.45,-0.225,0.09
7.4527777777777775,-0.205,0.13
7.455555555555556,-0.185,0.1
7.458333333333333,-0.19,0.075
7.461111111111111,-0.195,0.075
7.463888888888889,-0.185,0.1
7.466666666666667,-0.17,0.105
7.469444444444444,-0.17,0.085
7.472222222222222,-0.19,0.075
7.475,-0.21,0.115
7.477777777777778,-0.22,0.11
7.480555555555555,-0.225,0.085
7.483333333333333,-0.2,0.075
7.486111111111111,-0.185,0.1
7.488888888888889,-0.18,0.115
7.491666666666666,-0.21,0.105
7.4944444444444445,-0.215,0.075
7.497222222222222,-0.21,0.08
7.5,-0.195,0.1
7.502777777777778,-0.205,0.115
7.5055555555555555,-0.215,0.08
7.508333333333334,-0.205,0.085
7.511111111111111,-0.195,0.095
7.513888888888889,-0.2,0.115
7.516666666666667,-0.21,0.1
7.519444444444445,-0.215,0.095
7.522222222222222,-0.215,0.11
7.525,-0.205,0.125
7.527777777777778,-0.195,0.105
7.530555555555556,-0.205,0.08
7.533333333333333,-0.18,0.095
7.536111111111111,-0.165,0.135
7.538888888888889,-0.16,0.13
7.541666666666667,-0.13,0.115
7.544444444444444,-0.13,0.1
7.5472222222222225,-0.135,0.125
7.55,-0.125,0.13
7.552777777777778,-0.145,0.105
7.555555555555555,-0.155,0.115
7.558333333333334,-0.185,0.115
7.561111111111111,-0.2,0.11
7.563888888888889,-0.21,0.11
7.566666666666666,-0.205,0.1
7.569444444444445,-0.195,0.11
7.572222222222222,-0.19,0.125
7.575,-0.19,0.105
7.5777777777777775,-0.185,0.075
7.580555555555556,-0.185,0.08
7.583333333333333,-0.17,0.11
7.586111111111111,-0.18,0.115
7.588888888888889,-0.18,0.09
7.591666666666667,-0.185,0.075
7.594444444444444,-0.18,0.09
7.597222222222222,-0.19,0.105
7.6,-0.22,0.095
7.602777777777778,-0.255,0.095
7.605555555555555,-0.26,0.095
7.608333333333333,-0.27,0.12
7.611111111111111,-0.265,0.115
7.613888888888889,-0.24,0.09
7.616666666666666,-0.23,0.095
7.6194444444444445,-0.205,0.11
7.622222222222222,-0.21,0.12
7.625,-0.24,0.1
7.627777777777778,-0.26,0.085
7.6305555555555555,-0.265,0.085
7.633333333333334,-0.27,0.11
7.636111111111111,-0.255,0.115
7.638888888888889,-0.26,0.09
7.641666666666667,-0.265,0.1
7.644444444444445,-0.275,0.105
7.647222222222222,-0.265,0.115
7.65,-0.255,0.085
7.652777777777778,-0.235,0.09
7.655555555555556,-0.245,0.11
7.658333333333333,-0.26,0.11
7.661111111111111,-0.26,0.09
7.663888888888889,-0.27,0.08
7.666666666666667,-0.255,0.095
7.669444444444444,-0.23,0.13
7.6722222222222225,-0.23,0.115
7.675,-0.245,0.075
7.677777777777778,-0.24,0.085
7.680555555555555,-0.26,0.08
7.683333333333334,-0.27,0.105
7.686111111111111,-0.28,0.09
7.688888888888889,-0.285,0.07
7.691666666666666,-0.29,0.085
7.694444444444445,-0.295,0.095
7.697222222222222,-0.29,0.08
7.7,-0.255,0.065
7.7027777777777775,-0.2,0.075
7.705555555555556,-0.12,0.09
7.708333333333333,-0.05,0.1
7.711111111111111,0.015,0.07
7.713888888888889,0.09,0.07
7.716666666666667,0.18,0.075
7.719444444444444,0.265,0.115
7.722222222222222,0.37,0.11
7.725,0.48,0.085
7.727777777777778,0.595,0.08
7.730555555555555,0.705,0.11
7.733333333333333,0.79,0.12
7.736111111111111,0.85,0.105
7.738888888888889,0.855,0.095
7.741666666666666,0.795,0.115
7.7444444444444445,0.685,0.125
7.747222222222222,0.515,0.12
7.75,0.28,0.12
7.752777777777778,0.015,0.14
7.7555555555555555,-0.215,0.165
7.758333333333334,-0.39,0.155
7.761111111111111,-0.495,0.125
7.763888888888889,-0.555,0.14
7.766666666666667,-0.54,0.175
7.769444444444445,-0.485,0.165
7.772222222222222,-0.45,0.135
7.775,-0.44,0.115
7.777777777777778,-0.43,0.12
7.780555555555556,-0.445,0.125
7.783333333333333,-0.43,0.12
7.786111111111111,-0.415,0.105
7.788888888888889,-0.4,0.11
7.791666666666667,-0.4,0.115
7.794444444444444,-0.405,0.1
7.7972222222222225,-0.42,0.075
7.8,-0.405,0.075
7.802777777777778,-0.395,0.105
7.805555555555555,-0.385,0.105
7.808333333333334,-0.375,0.07
7.811111111111111,-0.395,0.05
7.813888888888889,-0.41,0.05
7.816666666666666,-0.405,0.09
7.819444444444445,-0.365,0.105
7.822222222222222,-0.335,0.075
7.825,-0.32,0.06
7.8277777777777775,-0.335,0.075
7.830555555555556,-0.34,0.09
7.833333333333333,-0.34,0.085
7.836111111111111,-0.335,0.075
7.838888888888889,-0.34,0.075
7.841666666666667,-0.335,0.09
7.844444444444444,-0.345,0.095
7.847222222222222,-0.35,0.07
7.85,-0.345,0.06
7.852777777777778,-0.335,0.075
7.855555555555555,-0.33,0.09
7.858333333333333,-0.32,0.08
7.861111111111111,-0.33,0.05
7.863888888888889,-0.335,0.05
7.866666666666666,-0.33,0.085
7.8694444444444445,-0.33,0.1
7.872222222222222,-0.32,0.09
7.875,-0.31,0.055
7.877777777777778,-0.305,0.045
7.8805555555555555,-0.305,0.07
7.883333333333334,-0.31,0.08
7.886111111111111,-0.31,0.075
7.888888888888889,-0.295,0.055
7.891666666666667,-0.3,0.08
7.894444444444445,-0.315,0.08
7.897222222222222,-0.32,0.065
7.9,-0.33,0.065
7.902777777777778,-0.315,0.07
7.905555555555556,-0.32,0.075
7.908333333333333,-0.32,0.06
7.911111111111111,-0.325,0.035
7.913888888888889,-0.31,0.03
7.916666666666667,-0.295,0.065
7.919444444444444,-0.285,0.08
7.9222222222222225,-0.28,0.07
7.925,-0.3,0.05
7.927777777777778,-0.3,0.035
7.930555555555555,-0.285,0.055
7.933333333333334,-0.27,0.07
7.936111111111111,-0.245,0.075
7.938888888888889,-0.24,0.055
7.941666666666666,-0.26,0.07
7.944444444444445,-0.265,0.08
7.947222222222222,-0.28,0.08
7.95,-0.27,0.07
7.9527777777777775,-0.28,0.075
7.955555555555556,-0.29,0.09
7.958333333333333,-0.29,0.08
7.961111111111111,-0.295,0.07
7.963888888888889,-0.27,0.055
7.966666666666667,-0.25,0.08
7.969444444444444,-0.235,0.105
7.972222222222222,-0.225,0.1
7.975,-0.245,0.085
7.977777777777778,-0.28,0.08
7.980555555555555,-0.285,0.085
7.983333333333333,-0.28,0.085
7.986111111111111,-0.26,0.08
7.988888888888889,-0.245,0.08
7.991666666666666,-0.24,0.095
7.9944444444444445,-0.25,0.09
7.997222222222222,-0.255,0.095
8.0,-0.24,0.075
8.002777777777778,-0.225,0.095
8.005555555555556,-0.225,0.105
8.008333333333333,-0.23,0.105
8.011111111111111,-0.24,0.075
8.01388888888889,-0.235,0.06
8.016666666666667,-0.23,0.08
8.019444444444444,-0.205,0.1
8.022222222222222,-0.195,0.11
8.025,-0.195,0.085
8.027777777777779,-0.19,0.07
8.030555555555555,-0.195,0.08
8.033333333333333,-0.2,0.095
8.036111111111111,-0.205,0.09
8.03888888888889,-0.19,0.08
8.041666666666666,-0.21,0.08
8.044444444444444,-0.215,0.09
8.047222222222222,-0.22,0.105
8.05,-0.225,0.11
8.052777777777777,-0.205,0.09
8.055555555555555,-0.19,0.105
8.058333333333334,-0.195,0.105
8.061111111111112,-0.195,0.1
8.063888888888888,-0.205,0.075
8.066666666666666,-0.215,0.09
8.069444444444445,-0.18,0.105
8.072222222222223,-0.18,0.115
8.075,-0.19,0.12
8.077777777777778,-0.19,0.095
8.080555555555556,-0.19,0.095
8.083333333333334,-0.185,0.1
8.08611111111111,-0.165,0.12
8.088888888888889,-0.165,0.13
8.091666666666667,-0.19,0.1
8.094444444444445,-0.22,0.085
8.097222222222221,-0.23,0.09
8.1,-0.2,0.12
8.102777777777778,-0.205,0.13
8.105555555555556,-0.185,0.11
8.108333333333333,-0.2,0.11
8.11111111111111,-0.215,0.115
8.113888888888889,-0.24,0.115
8.116666666666667,-0.22,0.125
8.119444444444444,-0.21,0.11
8.122222222222222,-0.195,0.11
8.125,-0.22,0.115
8.127777777777778,-0.27,0.12
8.130555555555556,-0.27,0.105
8.133333333333333,-0.265,0.11
8.136111111111111,-0.245,0.13
8.13888888888889,-0.245,0.125
8.141666666666667,-0.24,0.115
8.144444444444444,-0.255,0.095
8.147222222222222,-0.265,0.085
8.15,-0.265,0.115
8.152777777777779,-0.26,0.14
8.155555555555555,-0.255,0.13
8.158333333333333,-0.23,0.105
8.161111111111111,-0.25,0.11
8.16388888888889,-0.26,0.115
8.166666666666666,-0.265,0.12
8.169444444444444,-0.26,0.115
8.172222222222222,-0.255,0.1
8.175,-0.265,0.11
8.177777777777777,-0.265,0.11
8.180555555555555,-0.275,0.12
8.183333333333334,-0.275,0.115
8.186111111111112,-0.27,0.12
8.188888888888888,-0.285,0.12
8.191666666666666,-0.295,0.11
8.194444444444445,-0.295,0.1
8.197222222222223,-0.295,0.08
8.2,-0.29,0.095
8.202777777777778,-0.25,0.125
8.205555555555556,-0.215,0.125
8.208333333333334,-0.21,0.11
8.21111111111111,-0.21,0.09
8.213888888888889,-0.225,0.095
8.216666666666667,-0.205,0.12
8.219444444444445,-0.185,0.125
8.222222222222221,-0.16,0.1
8.225,-0.13,0.085
8.227777777777778,-0.13,0.085
8.230555555555556,-0.135,0.11
8.233333333333333,-0.13,0.105
8.23611111111111,-0.11,0.1
8.238888888888889,-0.07,0.095
8.241666666666667,-0.06,0.08
8.244444444444444,-0.055,0.075
8.247222222222222,-0.035,0.07
8.25,0.03,0.045
8.252777777777778,0.115,0.045
8.255555555555556,0.16,0.065
8.258333333333333,0.16,0.055
8.261111111111111,0.12,0.035
8.26388888888889,0.11,0.035
8.266666666666667,0.1,0.03
8.269444444444444,0.075,0.05
8.272222222222222,-0.005,0.045
8.275,-0.16,0.01
8.277777777777779,-0.43,-0.02
8.280555555555555,-0.82,-0.005
8.283333333333333,-1.2,0.03
8.286111111111111,-1.525,0.055
8.28888888888889,-1.745,0.035
8.291666666666666,-1.865,0.02
8.294444444444444,-1.91,0.01
8.297222222222222,-1.955,0.04
8.3,-1.965,0.04
8.302777777777777,-1.94,0.035
8.305555555555555,-1.91,0.035
8.308333333333334,-1.9,0.03
8.311111111111112,-1.89,0.06
8.313888888888888,-1.87,0.075
8.316666666666666,-1.785,0.07
8.319444444444445,-1.67,0.095
8.322222222222223,-1.525,0.1
8.325,-1.455,0.105
8.327777777777778,-1.42,0.09
8.330555555555556,-1.37,0.075
8.333333333333334,-1.3,0.09
8.33611111111111,-1.19,0.12
8.338888888888889,-1.075,0.135
8.341666666666667,-0.99,0.125
8.344444444444445,-0.945,0.105
8.347222222222221,-0.89,0.095
8.35,-0.825,0.11
8.352777777777778,-0.78,0.135
8.355555555555556,-0.735,0.095
8.358333333333333,-0.7,0.08
8.36111111111111,-0.65,0.075
8.363888888888889,-0.605,0.09
8.366666666666667,-0.55,0.105
8.369444444444444,-0.525,0.095
8.372222222222222,-0.51,0.075
8.375,-0.51,0.095
8.377777777777778,-0.5,0.09
8.380555555555556,-0.49,0.085
8.383333333333333,-0.45,0.08
8.386111111111111,-0.415,0.07
8.38888888888889,-0.39,0.075
8.391666666666667,-0.335,0.085
8.394444444444444,-0.29,0.09
8.397222222222222,-0.23,0.085
8.4,-0.16,0.08
8.402777777777779,-0.095,0.1
8.405555555555555,-0.03,0.115
8.408333333333333,0.01,0.105
8.411111111111111,0.03,0.075
8.41388888888889,0.055,0.065
8.416666666666666,0.09,0.095
8.419444444444444,0.12,0.11
8.422222222222222,0.145,0.115
8.425,0.16,0.11
8.427777777777777,0.175,0.115
8.430555555555555,0.165,0.11
8.433333333333334,0.175,0.095
8.436111111111112,0.195,0.09
8.438888888888888,0.235,0.1
8.441666666666666,0.25,0.11
8.444444444444445,0.255,0.115
8.447222222222223,0.24,0.105
8.45,0.27,0.11
8.452777777777778,0.28,0.115
8.455555555555556,0.3,0.13
8.458333333333334,0.33,0.115
8.46111111111111,0.355,0.085
8.463888888888889,0.37,0.075
8.466666666666667,0.39,0.11
8.469444444444445,0.395,0.14
8.472222222222221,0.41,0.135
8.475,0.425,0.105
8.477777777777778,0.43,0.095
8.480555555555556,0.47,0.1
8.483333333333333,0.485,0.13
8.48611111111111,0.52,0.13
8.488888888888889,0.54,0.1
8.491666666666667,0.535,0.095
8.494444444444444,0.535,0.12
8.497222222222222,0.545,0.14
8.5,0.57,0.13
8.502777777777778,0.59,0.115
8.505555555555556,0.615,0.115
8.508333333333333,0.61,0.13
8.511111111111111,0.62,0.125
8.51388888888889,0.61,0.12
8.516666666666667,0.615,0.105
8.519444444444444,0.63,0.1
8.522222222222222,0.635,0.11
8.525,0.635,0.125
8.527777777777779,0.655,0.13
8.530555555555555,0.66,0.1
8.533333333333333,0.66,0.1
8.536111111111111,0.66,0.12
8.53888888888889,0.655,0.14
8.541666666666666,0.645,0.125
8.544444444444444,0.61,0.09
8.547222222222222,0.59,0.085
8.55,0.605,0.115
8.552777777777777,0.615,0.135
8.555555555555555,0.625,0.14
8.558333333333334,0.62,0.11
8.561111111111112,0.59,0.105
8.563888888888888,0.56,0.135
8.566666666666666,0.565,0.15
8.569444444444445,0.56,0.14
8.572222222222223,0.56,0.105
8.575,0.53,0.085
8.577777777777778,0.495,0.11
8.580555555555556,0.475,0.125
8.583333333333334,0.465,0.115
8.58611111111111,0.475,0.115
8.588888888888889,0.47,0.11
8.591666666666667,0.44,0.12
8.594444444444445,0.42,0.125
8.597222222222221,0.39,0.11
8.6,0.385,0.105
8.602777777777778,0.36,0.11
8.605555555555556,0.35,0.12
8.608333333333333,0.315,0.125
8.61111111111111,0.28,0.1
8.613888888888889,0.245,0.105
8.616666666666667,0.225,0.11
8.619444444444444,0.215,0.14
8.622222222222222,0.19,0.135
8.625,0.165,0.12
8.627777777777778,0.15,0.085
8.630555555555556,0.12,0.09
8.633333333333333,0.11,0.13
8.636111111111111,0.085,0.15
8.63888888888889,0.08,0.125
8.641666666666667,0.05,0.095
8.644444444444444,0.03,0.09
8.647222222222222,0.01,0.11
8.65,0.005,0.135
8.652777777777779,0.005,0.125
8.655555555555555,0.0,0.105
8.658333333333333,0.005,0.085
8.661111111111111,-0.015,0.085
8.66388888888889,-0.05,0.11
8.666666666666666,-0.075,0.115
8.669444444444444,-0.1,0.11
8.672222222222222,-0.105,0.095
8.675,-0.085,0.105
8.677777777777777,-0.06,0.115
8.680555555555555,-0.06,0.12
8.683333333333334,-0.045,0.11
8.686111111111112,-0.05,0.1
8.688888888888888,-0.05,0.1
8.691666666666666,-0.05,0.12
8.694444444444445,-0.07,0.125
8.697222222222223,-0.075,0.1
8.7,-0.08,0.1
8.702777777777778,-0.095,0.12
8.705555555555556,-0.105,0.14
8.708333333333334,-0.085,0.135
8.71111111111111,-0.09,0.11
8.713888888888889,-0.105,0.09
8.716666666666667,-0.1,0.105
8.719444444444445,-0.1,0.14
8.722222222222221,-0.085,0.135
8.725,-0.09,0.115
8.727777777777778,-0.11,0.09
8.730555555555556,-0.12,0.1
8.733333333333333,-0.11,0.13
8.73611111111111,-0.085,0.145
8.738888888888889,-0.075,0.12
8.741666666666667,-0.085,0.09
8.744444444444444,-0.1,0.095
8.747222222222222,-0.13,0.12
8.75,-0.13,0.125
8.752777777777778,-0.14,0.12
8.755555555555556,-0.145,0.115
8.758333333333333,-0.145,0.125
8.761111111111111,-0.145,0.12
8.76388888888889,-0.15,0.115
8.766666666666667,-0.15,0.1
8.769444444444444,-0.15,0.1
8.772222222222222,-0.135,0.1
8.775,-0.13,0.11
8.777777777777779,-0.135,0.085
8.780555555555555,-0.14,0.095
8.783333333333333,-0.13,0.125
8.786111111111111,-0.12,0.14
8.78888888888889,-0.12,0.12
8.791666666666666,-0.12,0.1
8.794444444444444,-0.12,0.1
8.797222222222222,-0.135,0.115
8.8,-0.14,0.11
8.802777777777777,-0.15,0.115
8.805555555555555,-0.13,0.11
8.808333333333334,-0.12,0.115
8.811111111111112,-0.12,0.115
8.813888888888888,-0.125,0.12
8.816666666666666,-0.14,0.095
8.819444444444445,-0.16,0.105
8.822222222222223,-0.18,0.105
8.825,-0.205,0.115
8.827777777777778,-0.23,0.1
8.830555555555556,-0.205,0.09
8.833333333333334,-0.2,0.09
8.83611111111111,-0.19,0.12
8.838888888888889,-0.195,0.125
8.841666666666667,-0.19,0.11
8.844444444444445,-0.21,0.09
8.847222222222221,-0.24,0.09
8.85,-0.24,0.12
8.852777777777778,-0.235,0.135
8.855555555555556,-0.21,0.105
8.858333333333333,-0.19,0.095
8.86111111111111,-0.185,0.1
8.863888888888889,-0.2,0.115
8.866666666666667,-0.2,0.12
8.869444444444444,-0.2,0.105
8.872222222222222,-0.175,0.1
8.875,-0.17,0.115
8.877777777777778,-0.185,0.11
8.880555555555556,-0.21,0.09
8.883333333333333,-0.22,0.09
8.886111111111111,-0.215,0.115
8.88888888888889,-0.22,0.125
8.891666666666667,-0.23,0.115
8.894444444444444,-0.24,0.075
8.897222222222222,-0.235,0.08
8.9,-0.225,0.105
8.902777777777779,-0.2,0.115
8.905555555555555,-0.175,0.09
8.908333333333333,-0.175,0.08
8.911111111111111,-0.175,0.09
8.91388888888889,-0.185,0.1
8.916666666666666,-0.185,0.105
8.919444444444444,-0.175,0.09
8.922222222222222,-0.175,0.09
8.925,-0.195,0.1
8.927777777777777,-0.225,0.1
8.930555555555555,-0.245,0.075
8.933333333333334,-0.23,0.075
8.936111111111112,-0.21,0.1
8.938888888888888,-0.2,0.115
8.941666666666666,-0.19,0.1
8.944444444444445,-0.2,0.075
8.947222222222223,-0.205,0.065
8.95,-0.21,0.1
8.952777777777778,-0.215,0.1
8.955555555555556,-0.215,0.085
8.958333333333334,-0.22,0.07
8.96111111111111,-0.21,0.09
8.963888888888889,-0.175,0.1
8.966666666666667,-0.145,0.1
8.969444444444445,-0.125,0.09
8.972222222222221,-0.135,0.095
8.975,-0.14,0.1
8.977777777777778,-0.145,0.085
8.980555555555556,-0.155,0.065
8.983333333333333,-0.15,0.095
8.98611111111111,-0.15,0.12
8.988888888888889,-0.145,0.12
8.991666666666667,-0.14,0.085
8.994444444444444,-0.165,0.08
8.997222222222222,-0.18,0.085
9.0,-0.165,0.09
9.002777777777778,-0.16,0.085
9.005555555555556,-0.155,0.075
9.008333333333333,-0.175,0.1
9.011111111111111,-0.205,0.095
9.01388888888889,-0.225,0.075
9.016666666666667,-0.21,0.075
9.019444444444444,-0.185,0.105
9.022222222222222,-0.175,0.1
9.025,-0.175,0.09
9.027777777777779,-0.2,0.06
9.030555555555555,-0.225,0.065
9.033333333333333,-0.23,0.095
9.036111111111111,-0.215,0.105
9.03888888888889,-0.21,0.075
9.041666666666666,-0.21,0.075
9.044444444444444,-0.205,0.085
9.047222222222222,-0.2,0.08
9.05,-0.17,0.07
9.052777777777777,-0.15,0.065
9.055555555555555,-0.15,0.09
9.058333333333334,-0.17,0.11
9.061111111111112,-0.19,0.07
9.063888888888888,-0.22,0.07
9.066666666666666,-0.205,0.08
9.069444444444445,-0.21,0.095
9.072222222222223,-0.205,0.085
9.075,-0.2,0.075
9.077777777777778,-0.21,0.08
9.080555555555556,-0.22,0.1
9.083333333333334,-0.235,0.085
9.08611111111111,-0.25,0.08
9.088888888888889,-0.245,0.09
9.091666666666667,-0.26,0.095
9.094444444444445,-0.285,0.075
9.097222222222221,-0.285,0.075
9.1,-0.27,0.08
9.102777777777778,-0.255,0.1
9.105555555555556,-0.23,0.095
9.108333333333333,-0.195,0.085
9.11111111111111,-0.18,0.08
9.113888888888889,-0.185,0.09
9.116666666666667,-0.18,0.085
9.119444444444444,-0.2,0.09
9.122222222222222,-0.195,0.09
9.125,-0.19,0.095
9.127777777777778,-0.21,0.085
9.130555555555556,-0.23,0.065
9.133333333333333,-0.205,0.08
9.136111111111111,-0.155,0.095
9.13888888888889,-0.075,0.09
9.141666666666667,0.01,0.07
9.144444444444444,0.095,0.055
9.147222222222222,0.18,0.08
9.15,0.27,0.1
9.152777777777779,0.355,0.095
9.155555555555555,0.455,0.08
9.158333333333333,0.56,0.095
9.161111111111111,0.675,0.1
9.16388888888889,0.785,0.09
9.166666666666666,0.905,0.09
9.169444444444444,1.005,0.12
9.172222222222222,1.03,0.135
9.175,0.995,0.125
9.177777777777777,0.875,0.1
9.180555555555555,0.625,0.12
9.183333333333334,0.22,0.155
9.186111111111112,-0.17,0.155
9.188888888888888,-0.39,0.15
9.191666666666666,-0.445,0.155
9.194444444444445,-0.475,0.18
9.197222222222223,-0.475,0.165
9.2,-0.42,0.155
9.202777777777778,-0.37,0.165
9.205555555555556,-0.345,0.155
9.208333333333334,-0.335,0.155
9.21111111111111,-0.34,0.125
9.213888888888889,-0.365,0.13
9.216666666666667,-0.38,0.15
9.219444444444445,-0.39,0.15
9.222222222222221,-0.4,0.13
9.225,-0.395,0.11
9.227777777777778,-0.38,0.115
9.230555555555556,-0.385,0.095
9.233333333333333,-0.385,0.08
9.23611111111111,-0.395,0.09
9.238888888888889,-0.375,0.105
9.241666666666667,-0.33,0.105
9.244444444444444,-0.3,0.085
9.247222222222222,-0.295,0.08
9.25,-0.325,0.095
9.252777777777778,-0.345,0.1
9.255555555555556,-0.35,0.09
9.258333333333333,-0.34,0.08
9.261111111111111,-0.32,0.075
9.26388888888889,-0.285,0.09
9.266666666666667,-0.27,0.11
9.269444444444444,-0.265,0.1
9.272222222222222,-0.27,0.105
9.275,-0.26,0.095
9.277777777777779,-0.295,0.085
9.280555555555555,-0.315,0.08
9.283333333333333,-0.32,0.09
9.286111111111111,-0.315,0.115
9.28888888888889,-0.295,0.115
9.291666666666666,-0.285,0.09
9.294444444444444,-0.275,0.09
9.297222222222222,-0.285,0.085
9.3,-0.275,0.095
9.302777777777777,-0.27,0.09
9.305555555555555,-0.265,0.085
9.308333333333334,-0.265,0.095
9.311111111111112,-0.27,0.095
9.313888888888888,-0.275,0.08
9.316666666666666,-0.28,0.085
9.319444444444445,-0.26,0.095
9.322222222222223,-0.26,0.1
9.325,-0.255,0.09
9.327777777777778,-0.26,0.07
9.330555555555556,-0.275,0.07
9.333333333333334,-0.26,0.095
9.33611111111111,-0.255,0.105
9.338888888888889,-0.25,0.095
9.341666666666667,-0.26,0.08
9.344444444444445,-0.265,0.08
9.347222222222221,-0.265,0.075
9.35,-0.28,0.065
9.352777777777778,-0.275,0.075
9.355555555555556,-0.265,0.1
9.358333333333333,-0.25,0.095
9.36111111111111,-0.24,0.055
9.363888888888889,-0.22,0.065
9.366666666666667,-0.19,0.08
9.369444444444444,-0.18,0.09
9.372222222222222,-0.21,0.055
9.375,-0.28,0.055
9.377777777777778,-0.355,0.06
9.380555555555556,-0.355,0.08
9.383333333333333,-0.3,0.085
9.386111111111111,-0.265,0.08
9.38888888888889,-0.25,0.08
9.391666666666667,-0.29,0.075
9.394444444444444,-0.33,0.045
9.397222222222222,-0.325,0.04
9.4,-0.28,0.07
9.402777777777779,-0.265,0.095
9.405555555555555,-0.25,0.085
9.408333333333333,-0.25,0.065
9.411111111111111,-0.245,0.06
9.41388888888889,-0.25,0.07
9.416666666666666,-0.25,0.06
9.419444444444444,-0.25,0.055
9.422222222222222,-0.24,0.06
9.425,-0.235,0.075
9.427777777777777,-0.235,0.07
9.430555555555555,-0.23,0.06
9.433333333333334,-0.195,0.055
9.436111111111112,-0.185,0.09
9.438888888888888,-0.165,0.085
9.441666666666666,-0.16,0.06
9.444444444444445,-0.175,0.04
9.447222222222223,-0.185,0.06
9.45,-0.165,0.08
9.452777777777778,-0.135,0.075
9.455555555555556,-0.135,0.055
9.458333333333334,-0.12,0.055
9.46111111111111,-0.14,0.075
9.463888888888889,-0.15,0.055
9.466666666666667,-0.14,0.045
9.469444444444445,-0.135,0.04
9.472222222222221,-0.15,0.07
9.475,-0.17,0.08
9.477777777777778,-0.165,0.055
9.480555555555556,-0.18,0.05
9.483333333333333,-0.175,0.07
9.48611111111111,-0.16,0.085
9.488888888888889,-0.15,0.08
9.491666666666667,-0.165,0.05
9.494444444444444,-0.155,0.045
9.497222222222222,-0.155,0.065
9.5,-0.15,0.09
9.502777777777778,-0.145,0.105
9.505555555555556,-0.145,0.075
9.508333333333333,-0.145,0.075
9.511111111111111,-0.145,0.075
9.51388888888889,-0.15,0.07
9.516666666666667,-0.165,0.06
9.519444444444444,-0.175,0.075
9.522222222222222,-0.16,0.08
9.525,-0.165,0.105
9.527777777777779,-0.19,0.075
9.530555555555555,-0.185,0.07
9.533333333333333,-0.19,0.1
9.536111111111111,-0.19,0.095
9.53888888888889,-0.185,0.085
9.541666666666666,-0.18,0.075
9.544444444444444,-0.205,0.06
9.547222222222222,-0.205,0.08
9.55,-0.21,0.085
9.552777777777777,-0.21,0.075
9.555555555555555,-0.205,0.075
9.558333333333334,-0.22,0.095
9.561111111111112,-0.215,0.07
9.563888888888888,-0.22,0.055
9.566666666666666,-0.2,0.05
9.569444444444445,-0.2,0.07
9.572222222222223,-0.195,0.09
9.575,-0.205,0.08
9.577777777777778,-0.23,0.06
9.580555555555556,-0.235,0.065
9.583333333333334,-0.23,0.09
9.58611111111111,-0.21,0.085
9.588888888888889,-0.22,0.075
9.591666666666667,-0.225,0.055
9.594444444444445,-0.235,0.07
9.597222222222221,-0.24,0.085
9.6,-0.21,0.08
9.602777777777778,-0.19,0.09
9.605555555555556,-0.13,0.085
9.608333333333333,-0.105,0.08
9.61111111111111,-0.08,0.075
9.613888888888889,-0.07,0.07
9.616666666666667,-0.055,0.07
9.619444444444444,-0.025,0.09
9.622222222222222,-0.005,0.105
9.625,0.01,0.075
9.627777777777778,0.0,0.055
9.630555555555556,-0.02,0.06
9.633333333333333,-0.01,0.07
9.636111111111111,0.03,0.06
9.63888888888889,0.06,0.02
9.641666666666667,0.055,-0.005
9.644444444444444,-0.015,0.005
9.647222222222222,-0.125,-0.005
9.65,-0.265,-0.02
9.652777777777779,-0.53,-0.03
9.655555555555555,-0.905,-0.035
9.658333333333333,-1.31,-0.035
9.661111111111111,-1.685,-0.06
9.66388888888889,-1.99,-0.09
9.666666666666666,-2.185,-0.06
9.669444444444444,-2.26,-0.03
9.672222222222222,-2.26,-0.035
9.675,-2.25,-0.04
9.677777777777777,-2.245,-0.04
9.680555555555555,-2.205,-0.03
9.683333333333334,-2.14,-0.01
9.686111111111112,-2.08,-0.025
9.688888888888888,-2.005,-0.025
9.691666666666666,-1.905,-0.005
9.694444444444445,-1.815,0.015
9.697222222222223,-1.72,0.05
9.7,-1.64,0.05
9.702777777777778,-1.5,0.06
9.705555555555556,-1.33,0.07
9.708333333333334,-1.2,0.1
9.71111111111111,-1.075,0.07
9.713888888888889,-1.015,0.05
9.716666666666667,-0.945,0.06
9.719444444444445,-0.905,0.085
9.722222222222221,-0.84,0.095
9.725,-0.77,0.07
9.727777777777778,-0.725,0.05
9.730555555555556,-0.69,0.07
9.733333333333333,-0.65,0.085
9.73611111111111,-0.61,0.08
9.738888888888889,-0.54,0.065
9.741666666666667,-0.48,0.055
9.744444444444444,-0.445,0.065
9.747222222222222,-0.395,0.065
9.75,-0.34,0.07
9.752777777777778,-0.255,0.09
9.755555555555556,-0.16,0.085
9.758333333333333,-0.095,0.065
9.761111111111111,-0.045,0.05
9.76388888888889,-0.005,0.06
9.766666666666667,0.05,0.09
9.769444444444444,0.1,0.115
9.772222222222222,0.145,0.1
9.775,0.165,0.09
9.777777777777779,0.17,0.095
9.780555555555555,0.195,0.1
9.783333333333333,0.22,0.09
9.786111111111111,0.235,0.085
9.78888888888889,0.26,0.105
9.791666666666666,0.285,0.11
9.794444444444444,0.31,0.09
9.797222222222222,0.315,0.095
9.8,0.335,0.12
9.802777777777777,0.345,0.135
9.805555555555555,0.36,0.11
9.808333333333334,0.37,0.095
9.811111111111112,0.385,0.09
9.813888888888888,0.395,0.115
9.816666666666666,0.405,0.125
9.819444444444445,0.44,0.12
9.822222222222223,0.47,0.125
9.825,0.49,0.13
9.827777777777778,0.5,0.11
9.830555555555556,0.52,0.095
9.833333333333334,0.525,0.11
9.83611111111111,0.54,0.125
9.838888888888889,0.58,0.13
9.841666666666667,0.605,0.12
9.844444444444445,0.61,0.1
9.847222222222221,0.615,0.105
9.85,0.64,0.13
9.852777777777778,0.66,0.125
9.855555555555556,0.675,0.11
9.858333333333333,0.685,0.105
9.86111111111111,0.685,0.125
9.863888888888889,0.67,0.115
9.866666666666667,0.685,0.1
9.869444444444444,0.7,0.125
9.872222222222222,0.705,0.14
9.875,0.705,0.125
9.877777777777778,0.7,0.095
9.880555555555556,0.7,0.1
9.883333333333333,0.705,0.13
9.886111111111111,0.695,0.13
9.88888888888889,0.7,0.12
9.891666666666667,0.7,0.11
9.894444444444444,0.685,0.12
9.897222222222222,0.655,0.11
9.9,0.655,0.09
9.902777777777779,0.635,0.09
9.905555555555555,0.63,0.115
9.908333333333333,0.62,0.11
9.911111111111111,0.58,0.095
9.91388888888889,0.545,0.09
9.916666666666666,0.525,0.11
9.919444444444444,0.49,0.115
9.922222222222222,0.47,0.095
9.925,0.43,0.085
9.927777777777777,0.385,0.095
9.930555555555555,0.345,0.095
9.933333333333334,0.305,0.095
9.936111111111112,0.29,0.095
9.938888888888888,0.27,0.115
9.941666666666666,0.25,0.1
9.944444444444445,0.205,0.075
9.947222222222223,0.165,0.06
9.95,0.14,0.09
9.952777777777778,0.125,0.11
9.955555555555556,0.13,0.09
9.958333333333334,0.115,0.085
9.96111111111111,0.1,0.085
9.963888888888889,0.06,0.085
9.966666666666667,0.04,0.065
9.969444444444445,0.04,0.075
9.972222222222221,0.035,0.09
9.975,0.025,0.095
9.977777777777778,-0.005,0.07
9.980555555555556,-0.06,0.065
9.983333333333333,-0.08,0.095
9.98611111111111,-0.085,0.105
9.988888888888889,-0.075,0.08
9.991666666666667,-0.09,0.07
9.994444444444444,-0.11,0.08
9.997222222222222,-0.13,0.095
10.0,-0.12,0.08
10.002777777777778,-0.15,0.085
10.005555555555556,-0.145,0.09
10.008333333333333,-0.145,0.1
10.011111111111111,-0.16,0.085
10.01388888888889,-0.16,0.085
10.016666666666667,-0.15,0.09
10.019444444444444,-0.15,0.085
10.022222222222222,-0.15,0.06
10.025,-0.16,0.075
10.027777777777779,-0.19,0.07
10.030555555555555,-0.185,0.055
10.033333333333333,-0.185,0.04
10.036111111111111,-0.18,0.065
10.03888888888889,-0.175,0.07
10.041666666666666,-0.18,0.05
10.044444444444444,-0.19,0.025
10.047222222222222,-0.22,0.045
10.05,-0.22,0.07
10.052777777777777,-0.225,0.06
10.055555555555555,-0.215,0.03
10.058333333333334,-0.195,0.04
10.061111111111112,-0.195,0.065
10.063888888888888,-0.21,0.05
10.066666666666666,-0.215,0.04
10.069444444444445,-0.23,0.06
10.072222222222223,-0.22,0.075
10.075,-0.22,0.055
10.077777777777778,-0.215,0.03
10.080555555555556,-0.24,0.045
10.083333333333334,-0.24,0.065
10.08611111111111,-0.24,0.06
10.088888888888889,-0.245,0.04
10.091666666666667,-0.245,0.05
10.094444444444445,-0.245,0.04
10.097222222222221,-0.255,0.03
10.1,-0.25,0.035
10.102777777777778,-0.25,0.06
10.105555555555556,-0.245,0.065
10.108333333333333,-0.24,0.05
10.11111111111111,-0.255,0.04
10.113888888888889,-0.27,0.055
10.116666666666667,-0.275,0.05
10.119444444444444,-0.275,0.045
10.122222222222222,-0.275,0.035
10.125,-0.285,0.06
10.127777777777778,-0.28,0.035
10.130555555555556,-0.28,0.01
10.133333333333333,-0.275,0.03
10.136111111111111,-0.28,0.06
10.13888888888889,-0.3,0.04
10.141666666666667,-0.305,0.005
10.144444444444444,-0.285,0.015
10.147222222222222,-0.28,0.035
10.15,-0.28,0.035
10.152777777777779,-0.29,0.025
10.155555555555555,-0.28,0.04
10.158333333333333,-0.295,0.05
10.161111111111111,-0.29,0.03
10.16388888888889,-0.295,0.005
10.166666666666666,-0.28,0.02
10.169444444444444,-0.29,0.055
10.172222222222222,-0.285,0.045
10.175,-0.29,0.025
10.177777777777777,-0.29,0.02
10.180555555555555,-0.305,0.04
10.183333333333334,-0.29,0.035
10.186111111111112,-0.295,0.025
10.188888888888888,-0.275,0.035
10.191666666666666,-0.28,0.05
10.194444444444445,-0.3,0.02
10.197222222222223,-0.31,0.02
10.2,-0.305,0.055
10.202777777777778,-0.3,0.065
10.205555555555556,-0.3,0.04
10.208333333333334,-0.295,0.03
10.21111111111111,-0.31,0.045
10.213888888888889,-0.315,0.045
10.216666666666667,-0.3,0.03
10.219444444444445,-0.275,0.05
10.222222222222221,-0.27,0.055
10.225,-0.25,0.055
10.227777777777778,-0.255,0.035
10.230555555555556,-0.265,0.04
10.233333333333333,-0.25,0.075
10.23611111111111,-0.23,0.08
10.238888888888889,-0.22,0.06
10.241666666666667,-0.225,0.06
10.244444444444444,-0.245,0.08
10.247222222222222,-0.255,0.055
10.25,-0.25,0.06
10.252777777777778,-0.25,0.075
10.255555555555556,-0.235,0.08
10.258333333333333,-0.26,0.075
10.261111111111111,-0.265,0.055
10.26388888888889,-0.28,0.065
10.266666666666667,-0.29,0.07
10.269444444444444,-0.28,0.06
10.272222222222222,-0.285,0.075
10.275,-0.305,0.065
10.277777777777779,-0.32,0.055
10.280555555555555,-0.32,0.04
10.283333333333333,-0.325,0.06
10.286111111111111,-0.32,0.09
10.28888888888889,-0.31,0.06
10.291666666666666,-0.285,0.045
10.294444444444444,-0.29,0.065
10.297222222222222,-0.315,0.07
10.3,-0.34,0.06
10.302777777777777,-0.345,0.06
10.305555555555555,-0.31,0.09
10.308333333333334,-0.31,0.07
10.311111111111112,-0.325,0.055
10.313888888888888,-0.34,0.045
10.316666666666666,-0.33,0.08
10.319444444444445,-0.33,0.085
10.322222222222223,-0.31,0.07
10.325,-0.305,0.055
10.327777777777778,-0.32,0.065
10.330555555555556,-0.33,0.065
10.333333333333334,-0.335,0.045
10.33611111111111,-0.335,0.07
10.338888888888889,-0.335,0.075
10.341666666666667,-0.33,0.065
10.344444444444445,-0.37,0.045
10.347222222222221,-0.39,0.055
10.35,-0.395,0.075
10.352777777777778,-0.375,0.06
10.355555555555556,-0.325,0.05
10.358333333333333,-0.25,0.05
10.36111111111111,-0.18,0.055
10.363888888888889,-0.09,0.04
10.366666666666667,0.0,0.05
10.369444444444444,0.135,0.075
10.372222222222222,0.23,0.075
10.375,0.335,0.05
10.377777777777778,0.425,0.045
10.380555555555556,0.515,0.06
10.383333333333333,0.605,0.065
10.386111111111111,0.625,0.065
10.38888888888889,0.565,0.075
10.391666666666667,0.46,0.1
10.394444444444444,0.33,0.075
10.397222222222222,0.11,0.07
10.4,-0.175,0.105
10.402777777777779,-0.41,0.135
10.405555555555555,-0.545,0.125
10.408333333333333,-0.63,0.115
10.411111111111111,-0.65,0.12
10.41388888888889,-0.63,0.13
10.416666666666666,-0.57,0.11
10.419444444444444,-0.52,0.105
10.422222222222222,-0.48,0.11
10.425,-0.485,0.115
10.427777777777777,-0.48,0.1
10.430555555555555,-0.46,0.09
10.433333333333334,-0.44,0.11
10.436111111111112,-0.44,0.12
10.438888888888888,-0.45,0.085
10.441666666666666,-0.465,0.07
10.444444444444445,-0.48,0.075
10.447222222222223,-0.49,0.055
10.45,-0.47,0.04
10.452777777777778,-0.445,0.06
10.455555555555556,-0.42,0.08
10.458333333333334,-0.405,0.07
10.46111111111111,-0.415,0.03
10.463888888888889,-0.415,0.04
10.466666666666667,-0.415,0.065
10.469444444444445,-0.41,0.06
10.472222222222221,-0.4,0.04
10.475,-0.375,0.03
10.477777777777778,-0.4,0.05
10.480555555555556,-0.4,0.05
10.483333333333333,-0.405,0.035
10.48611111111111,-0.38,0.06
10.488888888888889,-0.375,0.075
10.491666666666667,-0.35,0.07
10.494444444444444,-0.36,0.03
10.497222222222222,-0.375,0.045
10.5,-0.37,0.065
10.502777777777778,-0.37,0.075
10.505555555555556,-0.365,0.05
10.508333333333333,-0.365,0.055
10.511111111111111,-0.385,0.06
10.51388888888889,-0.4,0.045
10.516666666666667,-0.4,0.025
10.519444444444444,-0.38,0.06
10.522222222222222,-0.38,0.07
10.525,-0.38,0.065
10.527777777777779,-0.37,0.035
10.530555555555555,-0.365,0.03
10.533333333333333,-0.36,0.07
10.536111111111111,-0.37,0.07
10.53888888888889,-0.355,0.05
10.541666666666666,-0.345,0.035
10.544444444444444,-0.36,0.055
10.547222222222222,-0.36,0.07
10.55,-0.355,0.055
10.552777777777777,-0.345,0.04
10.555555555555555,-0.33,0.045
10.558333333333334,-0.33,0.055
10.561111111111112,-0.33,0.035
10.563888888888888,-0.335,0.025
10.566666666666666,-0.34,0.045
10.569444444444445,-0.33,0.065
10.572222222222223,-0.335,0.055
10.575,-0.35,0.05
10.577777777777778,-0.35,0.035
10.580555555555556,-0.36,0.055
10.583333333333334,-0.345,0.06
10.58611111111111,-0.315,0.045
10.588888888888889,-0.29,0.04
10.591666666666667,-0.295,0.05
10.594444444444445,-0.305,0.055
10.597222222222221,-0.31,0.035
10.6,-0.32,0.04
10.602777777777778,-0.305,0.055
10.605555555555556,-0.3,0.055
10.608333333333333,-0.295,0.04
10.61111111111111,-0.295,0.025
10.613888888888889,-0.295,0.045
10.616666666666667,-0.295,0.075
10.619444444444444,-0.295,0.07
10.622222222222222,-0.29,0.055
10.625,-0.295,0.045
10.627777777777778,-0.295,0.045
10.630555555555556,-0.295,0.05
10.633333333333333,-0.27,0.045
10.636111111111111,-0.27,0.07
10.63888888888889,-0.26,0.08
10.641666666666667,-0.26,0.07
10.644444444444444,-0.28,0.04
10.647222222222222,-0.28,0.04
10.65,-0.265,0.06
10.652777777777779,-0.245,0.08
10.655555555555555,-0.23,0.07
10.658333333333333,-0.23,0.05
10.661111111111111,-0.235,0.06
10.66388888888889,-0.24,0.08
10.666666666666666,-0.24,0.08
10.669444444444444,-0.245,0.08
10.672222222222222,-0.24,0.065
10.675,-0.235,0.09
10.677777777777777,-0.24,0.07
10.680555555555555,-0.25,0.055
10.683333333333334,-0.25,0.06
10.686111111111112,-0.235,0.105
10.688888888888888,-0.24,0.105
10.691666666666666,-0.245,0.09
10.694444444444445,-0.255,0.07
10.697222222222223,-0.265,0.075
10.7,-0.28,0.09
10.702777777777778,-0.27,0.09
10.705555555555556,-0.27,0.075
10.708333333333334,-0.245,0.09
10.71111111111111,-0.26,0.085
10.713888888888889,-0.275,0.085
10.716666666666667,-0.29,0.085
10.719444444444445,-0.285,0.11
10.722222222222221,-0.285,0.105
10.725,-0.29,0.09
10.727777777777778,-0.3,0.075
10.730555555555556,-0.295,0.08
10.733333333333333,-0.275,0.1
10.73611111111111,-0.26,0.105
10.738888888888889,-0.26,0.09
10.741666666666667,-0.26,0.1
10.744444444444444,-0.275,0.095
10.747222222222222,-0.29,0.085
10.75,-0.285,0.08
10.752777777777778,-0.28,0.08
10.755555555555556,-0.29,0.1
10.758333333333333,-0.29,0.1
10.761111111111111,-0.31,0.08
10.76388888888889,-0.335,0.07
10.766666666666667,-0.325,0.085
10.769444444444444,-0.32,0.085
10.772222222222222,-0.32,0.06
10.775,-0.33,0.06
10.777777777777779,-0.335,0.075
10.780555555555555,-0.35,0.075
10.783333333333333,-0.34,0.065
10.786111111111111,-0.335,0.065
10.78888888888889,-0.33,0.075
10.791666666666666,-0.325,0.065
10.794444444444444,-0.325,0.04
10.797222222222222,-0.33,0.03
10.8,-0.335,0.055
10.802777777777777,-0.33,0.07
10.805555555555555,-0.34,0.065
10.808333333333334,-0.35,0.04
10.811111111111112,-0.345,0.045
10.813888888888888,-0.355,0.045
10.816666666666666,-0.345,0.055
10.819444444444445,-0.335,0.05
10.822222222222223,-0.335,0.07
10.825,-0.33,0.07
10.827777777777778,-0.345,0.04
10.830555555555556,-0.35,0.04
10.833333333333334,-0.35,0.055
10.83611111111111,-0.34,0.065
10.838888888888889,-0.325,0.045
10.841666666666667,-0.325,0.04
10.844444444444445,-0.33,0.05
10.847222222222221,-0.33,0.065
10.85,-0.31,0.075
10.852777777777778,-0.305,0.06
10.855555555555556,-0.31,0.07
10.858333333333333,-0.3,0.07
10.86111111111111,-0.295,0.045
10.863888888888889,-0.29,0.045
10.866666666666667,-0.28,0.07
10.869444444444444,-0.265,0.085
10.872222222222222,-0.255,0.07
10.875,-0.25,0.06
10.877777777777778,-0.245,0.05
10.880555555555556,-0.24,0.065
10.883333333333333,-0.235,0.07
10.886111111111111,-0.235,0.065
10.88888888888889,-0.24,0.07
10.891666666666667,-0.26,0.085
10.894444444444444,-0.275,0.04
10.897222222222222,-0.295,0.045
10.9,-0.29,0.065
10.902777777777779,-0.295,0.06
10.905555555555555,-0.29,0.04
10.908333333333333,-0.28,0.04
10.911111111111111,-0.285,0.055
10.91388888888889,-0.29,0.055
10.916666666666666,-0.305,0.04
10.919444444444444,-0.31,0.045
10.922222222222222,-0.305,0.04
10.925,-0.3,0.035
10.927777777777777,-0.31,0.0
10.930555555555555,-0.315,0.015
10.933333333333334,-0.305,0.025
10.936111111111112,-0.295,0.025
10.938888888888888,-0.275,0.025
10.941666666666666,-0.285,0.03
10.944444444444445,-0.295,0.015
10.947222222222223,-0.31,-0.005
10.95,-0.315,0.0
10.952777777777778,-0.34,0.02
10.955555555555556,-0.345,0.02
10.958333333333334,-0.345,0.0
10.96111111111111,-0.335,-0.01
10.963888888888889,-0.34,0.0
10.966666666666667,-0.325,-0.01
10.969444444444445,-0.315,-0.02
10.972222222222221,-0.305,-0.005
10.975,-0.32,0.02
10.977777777777778,-0.33,0.0
10.980555555555556,-0.345,-0.02
10.983333333333333,-0.335,-0.005
10.98611111111111,-0.3,0.03
10.988888888888889,-0.295,0.005
10.991666666666667,-0.285,0.0
10.994444444444444,-0.29,-0.005
10.997222222222222,-0.305,0.015
11.0,-0.295,0.005
11.002777777777778,-0.31,0.015
11.005555555555556,-0.33,0.02
11.008333333333333,-0.35,0.005
11.011111111111111,-0.35,-0.015
11.01388888888889,-0.315,-0.02
11.016666666666667,-0.25,0.01
11.019444444444444,-0.15,0.01
11.022222222222222,-0.04,0.0
11.025,0.08,-0.005
11.027777777777779,0.195,0.0
11.030555555555555,0.285,-0.025
11.033333333333333,0.385,-0.015
11.036111111111111,0.495,0.015
11.03888888888889,0.625,0.04
11.041666666666666,0.725,0.035
11.044444444444444,0.79,0.005
11.047222222222222,0.74,0.02
11.05,0.63,0.035
11.052777777777777,0.525,0.025
11.055555555555555,0.335,0.02
11.058333333333334,0.025,0.05
11.061111111111112,-0.29,0.075
11.063888888888888,-0.51,0.05
11.066666666666666,-0.595,0.075
11.069444444444445,-0.605,0.11
11.072222222222223,-0.57,0.1
11.075,-0.505,0.06
11.077777777777778,-0.46,0.04
11.080555555555556,-0.465,0.06
11.083333333333334,-0.44,0.07
11.08611111111111,-0.415,0.08
11.088888888888889,-0.4,0.075
11.091666666666667,-0.395,0.065
11.094444444444445,-0.41,0.055
11.097222222222221,-0.435,0.03
11.1,-0.445,0.02
11.102777777777778,-0.445,0.065
11.105555555555556,-0.44,0.04
11.108333333333333,-0.45,0.03
11.11111111111111,-0.445,0.02
11.113888888888889,-0.445,0.045
11.116666666666667,-0.41,0.03
11.119444444444444,-0.375,0.025
11.122222222222222,-0.365,0.025
11.125,-0.385,0.045
11.127777777777778,-0.4,0.03
11.130555555555556,-0.43,0.02
11.133333333333333,-0.415,0.03
11.136111111111111,-0.4,0.04
11.13888888888889,-0.39,0.02
11.141666666666667,-0.395,0.01
11.144444444444444,-0.4,0.01
11.147222222222222,-0.405,0.03
11.15,-0.39,0.02
11.152777777777779,-0.38,0.02
11.155555555555555,-0.38,0.025
11.158333333333333,-0.375,0.035
11.161111111111111,-0.38,0.015
11.16388888888889,-0.395,-0.01
11.166666666666666,-0.385,0.015
11.169444444444444,-0.37,0.04
11.172222222222222,-0.375,0.035
11.175,-0.375,0.035
11.177777777777777,-0.39,0.02
11.180555555555555,-0.385,0.03
11.183333333333334,-0.365,0.035
11.186111111111112,-0.35,0.015
11.188888888888888,-0.335,0.02
11.191666666666666,-0.34,0.04
11.194444444444445,-0.35,0.05
11.197222222222223,-0.335,0.025
11.2,-0.315,0.03
11.202777777777778,-0.3,0.06
11.205555555555556,-0.27,0.045
11.208333333333334,-0.265,0.02
11.21111111111111,-0.29,0.02
11.213888888888889,-0.305,0.03
11.216666666666667,-0.29,0.05
11.219444444444445,-0.28,0.04
11.222222222222221,-0.26,0.04
11.225,-0.265,0.05
11.227777777777778,-0.28,0.03
11.230555555555556,-0.265,0.005
11.233333333333333,-0.25,0.02
11.23611111111111,-0.23,0.05
11.238888888888889,-0.225,0.06
11.241666666666667,-0.24,0.045
11.244444444444444,-0.255,0.04
11.247222222222222,-0.245,0.04
11.25,-0.23,0.045
11.252777777777778,-0.21,0.04
11.255555555555556,-0.21,0.03
11.258333333333333,-0.22,0.05
11.261111111111111,-0.22,0.05
11.26388888888889,-0.225,0.04
11.266666666666667,-0.21,0.035
11.269444444444444,-0.175,0.07
11.272222222222222,-0.14,0.06
11.275,-0.135,0.035
11.277777777777779,-0.14,0.015
11.280555555555555,-0.135,0.015
11.283333333333333,-0.13,0.055
11.286111111111111,-0.135,0.065
11.28888888888889,-0.14,0.04
11.291666666666666,-0.135,0.055
11.294444444444444,-0.135,0.05
11.297222222222222,-0.155,0.045
11.3,-0.165,0.035
11.302777777777777,-0.165,0.04
11.305555555555555,-0.165,0.07
11.308333333333334,-0.175,0.075
11.311111111111112,-0.18,0.055
11.313888888888888,-0.195,0.05
11.316666666666666,-0.2,0.075
11.319444444444445,-0.2,0.075
11.322222222222223,-0.205,0.04
11.325,-0.2,0.04
11.327777777777778,-0.225,0.06
11.330555555555556,-0.22,0.055
11.333333333333334,-0.225,0.05
11.33611111111111,-0.235,0.045
11.338888888888889,-0.24,0.08
11.341666666666667,-0.24,0.075
11.344444444444445,-0.25,0.035
11.347222222222221,-0.255,0.02
11.35,-0.24,0.045
11.352777777777778,-0.24,0.075
11.355555555555556,-0.245,0.06
11.358333333333333,-0.255,0.035
11.36111111111111,-0.27,0.03
11.363888888888889,-0.285,0.05
11.366666666666667,-0.295,0.045
11.369444444444444,-0.295,0.035
11.372222222222222,-0.29,0.025
11.375,-0.29,0.055
11.377777777777778,-0.29,0.03
11.380555555555556,-0.305,0.025
11.383333333333333,-0.3,0.015
11.386111111111111,-0.3,0.05
11.38888888888889,-0.285,0.06
11.391666666666667,-0.3,0.035
11.394444444444444,-0.295,0.01
11.397222222222222,-0.305,0.025
11.4,-0.315,0.065
11.402777777777779,-0.305,0.065
11.405555555555555,-0.31,0.03
11.408333333333333,-0.32,0.035
11.411111111111111,-0.33,0.045
11.41388888888889,-0.34,0.04
11.416666666666666,-0.335,0.03
11.419444444444444,-0.33,0.035
11.422222222222222,-0.335,0.055
11.425,-0.345,0.06
11.427777777777777,-0.35,0.025
11.430555555555555,-0.36,0.035
11.433333333333334,-0.365,0.06
11.436111111111112,-0.365,0.07
11.438888888888888,-0.355,0.04
11.441666666666666,-0.37,0.04
11.444444444444445,-0.365,0.055
11.447222222222223,-0.39,0.05
11.45,-0.385,0.05
11.452777777777778,-0.375,0.04
11.455555555555556,-0.365,0.07
11.458333333333334,-0.365,0.06
11.46111111111111,-0.355,0.035
11.463888888888889,-0.355,0.02
11.466666666666667,-0.355,0.04
11.469444444444445,-0.355,0.075
11.472222222222221,-0.35,0.06
11.475,-0.345,0.05
11.477777777777778,-0.34,0.045
11.480555555555556,-0.345,0.07
11.483333333333333,-0.335,0.075
11.48611111111111,-0.33,0.065
11.488888888888889,-0.34,0.045
11.491666666666667,-0.35,0.065
11.494444444444444,-0.365,0.06
11.497222222222222,-0.375,0.055
11.5,-0.385,0.04
11.502777777777778,-0.39,0.06
11.505555555555556,-0.38,0.08
11.508333333333333,-0.38,0.075
11.511111111111111,-0.375,0.02
11.51388888888889,-0.375,0.025
11.516666666666667,-0.375,0.05
11.519444444444444,-0.37,0.075
11.522222222222222,-0.37,0.06
11.525,-0.365,0.05
11.527777777777779,-0.375,0.06
11.530555555555555,-0.385,0.065
11.533333333333333,-0.365,0.055
11.536111111111111,-0.355,0.035
11.53888888888889,-0.34,0.04
11.541666666666666,-0.34,0.07
11.544444444444444,-0.325,0.055
11.547222222222222,-0.31,0.04
11.55,-0.295,0.065
11.552777777777777,-0.3,0.085
11.555555555555555,-0.3,0.075
11.558333333333334,-0.33,0.055
11.561111111111112,-0.35,0.03
11.563888888888888,-0.385,0.05
11.566666666666666,-0.395,0.08
11.569444444444445,-0.39,0.08
11.572222222222223,-0.39,0.065
11.575,-0.39,0.065
11.577777777777778,-0.42,0.08
11.580555555555556,-0.42,0.065
11.583333333333334,-0.4,0.045
11.58611111111111,-0.38,0.055
11.588888888888889,-0.375,0.07
11.591666666666667,-0.375,0.085
11.594444444444445,-0.385,0.055
11.597222222222221,-0.38,0.06
11.6,-0.375,0.075
11.602777777777778,-0.365,0.085
11.605555555555556,-0.35,0.055
11.608333333333333,-0.35,0.04
11.61111111111111,-0.35,0.05
11.613888888888889,-0.365,0.06
11.616666666666667,-0.36,0.06
11.619444444444444,-0.36,0.055
11.622222222222222,-0.375,0.075
